DATE_ID,HOUR_ID,FC,SC,NEE,LE,H,USTAR,NETRAD,TA,VPD,WS,SWC,SW_IN
1,0.5,0.6325451825,0,0.6325451825,0.839009191,-12.665236715,0.132650933,-51.950361665,9.7856494835,1.841903615,1.237104373,12.90180165,0.015795
1,1.5,1.2978049355,0,1.2978049355,-0.2751260135,-15.7187354,0.127132191,-54.4346,9.72334815,1.72886,1.2224798855,12.80791335,0.0154869075
1,2.5,0.7303805315,0,0.7303805315,3.850523802,-12.97065276,0.14149458,-53.99564833,9.5374098335,1.80252392,1.165044801,12.81306,0.013725
1,3.5,0.753939358,0,0.753939358,2.7290706955,-7.043986019,0.136515539,-50.537353335,9.7010998335,1.68574669,1.039795899,12.86027835,0.0140175
1,4.5,1.018728834,0,1.018728834,7.734006051,-9.867534001,0.1391062985,-53.884361665,9.33579685,1.74723183,0.8715807465,12.85834,0.016089732
1,5.5,0.483665743,0,0.483665743,2.3736660885,-11.529277375,0.126806542,-56.140493335,9.4166068,1.677574065,1.2646279725,12.87833335,0.014896458
1,6.5,0.886834294,0,0.886834294,5.940793836,-14.99458896,0.124574183,-53.007186665,9.0765275,1.706699005,1.019970572,12.8922183,0.346823353575
1,7.5,0.3944885445,0,0.3944885445,8.909399984,-12.462471195,0.1173512525,-27.24715583,9.5290094835,1.726293725,1.0847473455,12.86499835,29.5053134985
1,8.5,-1.294228552,0,-1.294228552,21.90712422,2.362881274,0.144294189,37.98716123,9.978465,2.4287065,0.847911485,12.8455467,96.680894985
1,9.5,-2.404202268,0,-2.404202268,39.96163578,55.22983748,0.164986266,190.0519,11.914931665,4.09652219,0.715278379,12.86666665,337.137435
1,10.5,-2.93489007,0,-2.93489007,84.689510935,74.73087628,0.2156127025,218.2068753,12.95666165,5.659842815,1.2277887045,12.8561033,406.4634
1,11.5,-2.8588274475,0,-2.8588274475,75.668094415,89.44906771,0.250737216,252.54382665,14.00062,7.0318648,1.756939414,12.77222335,403.135725015
1,12.5,-2.41703113,0,-2.41703113,67.01672985,105.1784132,0.293249675,275.35615,14.537461665,6.57483656,1.9013720395,12.75569665,422.5838474925
1,13.5,-2.604212803,0,-2.604212803,67.609802045,93.19476464,0.326167659,239.59803165,14.921778315,7.12249405,2.4299012765,12.75222835,362.3788874925
1,14.5,-2.035175641,0,-2.035175641,52.334071985,67.77943285,0.306270598,150.3930417,14.799151685,6.685115235,2.288502903,12.7786033,270.52173
1,15.5,-0.946993259,0,-0.946993259,34.63140679,36.66115539,0.283914221,50.30371667,13.80441665,5.256056655,2.1488593505,12.7923633,151.1551275075
1,16.5,-0.3001371165,0,-0.3001371165,13.920564245,3.07211153,0.2051080715,-21.0343,13.03880165,4.260343975,1.7227934845,12.787915,29.666511
1,17.5,1.454099193,0,1.454099193,2.982345877,-13.7451552,0.124551403,-67.301183335,11.953774985,2.793545745,1.413329884,12.86,0.067636512
1,18.5,1.418856345,0,1.418856345,3.102124605,-17.28000726,0.127246611,-58.150751665,11.489771685,2.406104875,1.3648612875,12.9312517,0.017281567575
1,19.5,1.4070579955,0,1.4070579955,0.503965298,-13.38791852,0.105468029,-49.51482667,10.945334985,1.96503372,1.522930959,12.899305,0.017281585575
1,20.5,1.379190281,0,1.379190281,-0.100720223,-15.20012649,0.123000378,-44.574905,10.7114805,1.751976505,1.374556255,12.89555335,0.015188950575
1,21.5,1.5286437185,0,1.5286437185,2.6973296915,-15.70763577,0.1134705205,-52.235076665,10.3348715,1.85569674,1.2928134885,12.89749665,0.015493822425
1,22.5,1.3235925635,0,1.3235925635,-1.770910097,-18.95823392,0.125666936,-59.525875,10.3612842,1.797795705,1.3846856485,12.915965,0.014897913075
1,23.5,1.254839935,0,1.254839935,-1.182086058,-18.020060085,0.114936537,-56.472215,10.174174335,1.895866205,1.0627011415,12.96902665,0.015791785425
2,0.5,1.313368992,0,1.313368992,2.419672332,-25.54957005,0.1294623705,-69.086218335,10.489835685,2.888343195,1.2131932265,12.3543017,0.017573290425
2,1.5,1.3000842785,0,1.3000842785,6.513619145,-30.177164665,0.143021774,-67.108573335,10.586711665,4.167180785,1.406462919,12.28583665,0.016387692075
2,2.5,1.3522318665,0,1.3522318665,2.64554179,-26.21993081,0.139814694,-66.562173335,10.373738335,3.729210135,1.4457139095,12.25124835,0.01611
2,3.5,1.201054554,0,1.201054554,4.141762326,-19.45423234,0.1242815555,-62.68698833,10.199966685,3.46827663,1.274737898,12.22819665,0.016099867575
2,4.5,0.980043811,0,0.980043811,4.342408112,-21.248651625,0.1368283255,-61.923035,10.062202485,3.274058265,1.20571831,12.2448633,0.013715539425
2,5.5,0.704509495,0,0.704509495,4.5179637485,-19.674868645,0.138277358,-61.350003335,10.37229667,3.24871915,1.2917771265,12.241395,0.0169875
2,6.5,0.712371558,0,0.712371558,5.22619822,-21.65170827,0.141473161,-61.666625,10.078758185,3.686984725,1.286623353,12.25124665,0.236281060575
2,7.5,0.057541258,0,0.057541258,6.773926253,-18.18534458,0.1465004565,-39.855653335,10.380283335,4.16688063,1.493641875,12.25513665,31.29842925
2,8.5,-1.5561729015,0,-1.5561729015,21.14312525,-1.006511659,0.155344235,44.243895,11.27618165,5.590914185,1.1431234115,12.1104217,114.5822474925
2,9.5,-3.552694041,0,-3.552694041,55.202283,52.17489545,0.2053647775,272.76401665,12.936480015,9.5420858,1.425058863,12.1894417,394.5649200075
2,10.5,-4.2771339585,0,-4.2771339585,57.60907462,93.868217215,0.2634383435,384.3894,15.81734,12.584461645,1.5994481565,12.1715233,521.35642485
2,11.5,-4.329877199,0,-4.329877199,108.8995163,122.3650774,0.3052140285,442.2911333,16.810925015,12.558157165,2.257081406,12.20958335,590.71395015
2,12.5,-3.953301579,0,-3.953301579,89.468098595,131.46928875,0.323897778,416.0536,17.629561665,11.987451185,2.159948271,12.2126417,581.76750015
2,13.5,-3.2323243075,0,-3.2323243075,96.02558665,125.2987432,0.32178351,345.70896665,17.12281835,10.97581721,2.537290102,12.19707835,521.451749925
2,14.5,-3.309880703,0,-3.309880703,72.025327355,100.516775,0.3589485715,226.43545,17.3369567,11.535368285,2.58782501,12.14459,397.185255
2,15.5,-2.1726037505,0,-2.1726037505,46.799499065,49.784829815,0.306147013,91.431633335,16.661975,9.259984615,2.730783099,12.218195,234.6460049925
2,16.5,-0.68147507,0,-0.68147507,25.591122475,2.829745877,0.2318966185,-9.8265918915,15.39646335,7.73953085,2.104952517,12.208895,61.4890320075
2,17.5,1.077239427,0,1.077239427,5.881294214,-16.87142501,0.157510701,-77.65067,13.42585335,5.16174531,1.587319742,12.19527835,0.58131648765
2,18.5,1.48732466,0,1.48732466,4.821153741,-21.241913335,0.109709126,-75.033078335,13.043545,4.056432035,1.625302423,12.253745,0.019074664575
2,19.5,1.393666886,0,1.393666886,2.7852151405,-27.009263175,0.132507219,-72.600405,12.55096,3.699935225,1.644381243,12.223055,0.01608974865
2,20.5,1.157484703,0,1.157484703,4.510591442,-21.658537435,0.1329257195,-69.044483335,12.36700335,3.173419745,1.533613156,12.167085,0.014305996575
2,21.5,1.011393732,0,1.011393732,2.268840939,-18.06329028,0.1402543865,-67.73821,12.0854183,3.093445885,1.3230807905,12.17597165,0.016982827425
2,22.5,0.998011146,0,0.998011146,3.59337512,-21.57572697,0.131501151,-66.69385333,12.07377665,2.78345084,1.4749324945,12.18042165,0.016685655075
2,23.5,0.918430292,0,0.918430292,3.602595589,-19.65115434,0.152377595,-68.498323335,11.34059335,2.897723685,1.420050873,12.218055,0.0160875
3,0.5,1.153724109,0,1.153724109,4.040282985,-24.61373189,0.1272562985,-71.892586665,12.874965,5.34253358,1.372516955,11.565835,0.018467161425
3,1.5,1.679472377,0,1.679472377,3.413245945,-32.038403995,0.1190702195,-72.00867667,12.41004165,5.57918336,1.389274408,11.51596665,0.016988285925
3,2.5,1.316125945,0,1.316125945,5.3556731275,-26.38980236,0.128741338,-71.45771333,12.45744335,6.00497846,1.273809384,11.47499335,0.017865
3,3.5,1.258464643,0,1.258464643,5.940821343,-20.83510734,0.128393318,-67.725971665,12.564698335,6.161452825,1.1367332045,11.48694335,0.018484207425
3,4.5,1.3068636455,0,1.3068636455,6.57688857,-27.148263765,0.1247329095,-68.32442,12.48870333,6.139154685,1.105902706,11.51639,0.0160998705
3,5.5,0.858200697,0,0.858200697,12.06004778,-19.94324281,0.1474549655,-67.24122167,12.224596685,5.714558055,1.1786735605,11.55888665,0.017280792
3,6.5,0.747575867,0,0.747575867,7.993635019,-21.17767969,0.128648547,-62.854653335,12.203364985,5.81139119,1.3166149455,11.5795833,1.920637658925
3,7.5,-0.262931684,0,-0.262931684,12.991085725,-17.829945355,0.1436521085,-42.36746833,12.41238,5.971457415,1.134842909,11.548745,39.83344800075
3,8.5,-1.990628328,0,-1.990628328,35.62795706,3.3393743085,0.135498323,75.864916335,13.30169,9.327748805,1.0547902165,11.528465,163.859452515
3,9.5,-5.023138861,0,-5.023138861,76.39133011,67.609477605,0.203197864,324.36678335,16.997965,15.24454659,1.0702899115,11.48041835,445.4877224925
3,10.5,-5.2279534155,0,-5.2279534155,118.17557375,96.91100763,0.228142528,440.74435,19.11226,18.54574759,1.493539137,11.40986165,585.48817485
3,11.5,-4.7998050135,0,-4.7998050135,130.2117857,120.6131964,0.342963871,483.8177333,20.31348333,19.94184011,2.338549548,11.4472217,649.408124925
3,12.5,-5.030401298,0,-5.030401298,136.1398124,140.4714142,0.3569783995,472.6517333,20.2402467,19.655256285,2.810775162,11.48097,660.961725075
3,13.5,-4.9048801225,0,-4.9048801225,130.4037495,119.2605854,0.360540959,393.55068335,20.14318333,16.803764075,2.608898006,11.46611,590.410125
3,14.5,-4.0289806395,0,-4.0289806395,94.76415223,109.77488085,0.3878709435,281.78036665,20.151728335,17.70129938,2.7273505615,11.43791835,467.10027765
3,15.5,-3.2412275475,0,-3.2412275475,77.18755119,70.186577865,0.360931359,129.978105,19.34555,16.385873475,2.565393775,11.432215,296.208329985
3,16.5,-1.620245351,0,-1.620245351,28.20633636,17.250422495,0.25140546,-0.61452204,17.765786665,14.526465325,2.177523043,11.5261067,110.3759849925
3,17.5,0.8646393025,0,0.8646393025,6.506486191,-16.34740958,0.161159705,-77.676336665,15.35556333,9.196639605,1.666775872,11.55624665,2.632758982425
3,18.5,1.6643424835,0,1.6643424835,1.7900887785,-28.806091055,0.1408409905,-79.169226665,14.195056665,7.99017583,1.7705247275,11.6055533,0.023240727
3,19.5,1.2310415975,0,1.2310415975,4.845852551,-26.63716634,0.123684186,-74.94744,13.480839985,6.626188265,1.657356486,11.5948633,0.017871234075
3,20.5,1.833898383,0,1.833898383,6.559267075,-36.33675401,0.131359325,-74.477556665,13.691060015,7.20892728,1.84005046,11.59152835,0.019069323075
3,21.5,1.38360142,0,1.38360142,5.703070871,-29.855706645,0.133221472,-72.476405,13.41613333,6.90016351,1.71974777,11.57889,0.019367161425
3,22.5,1.359231245,0,1.359231245,-0.344114935,-25.8719499,0.1346193015,-73.773086665,13.036085,6.916638835,1.293629441,11.629725,0.016690326075
3,23.5,1.310657476,0,1.310657476,1.718851983,-25.92377851,0.143699663,-71.936961665,12.724579985,5.789593585,1.3169819225,11.57792335,0.016695
4,0.5,0.84152661,0,0.84152661,3.191315616,-16.171733775,0.12173783,-66.93659667,13.153126685,8.90367004,1.260049206,10.08277835,0.016089741
4,1.5,0.9683792705,0,0.9683792705,3.265179073,-19.482163165,0.1266360145,-66.75742,13.15153335,8.99496074,1.278344516,10.2275,0.017877483
4,2.5,0.8705592535,0,0.8705592535,6.853619403,-16.207893215,0.128758397,-68.24191667,12.5281383,9.5199885,1.026884955,10.22277835,0.016695
4,3.5,1.2332156735,0,1.2332156735,6.108008817,-11.920478485,0.1119682225,-68.68565,12.644913315,8.70159918,1.1461072985,10.24847335,0.0164025
4,4.5,1.398525553,0,1.398525553,4.028888271,-15.99041861,0.1305826445,-67.886441665,12.63324165,11.00142319,1.1824466185,10.17833,0.015795
4,5.5,0.816685853,0,0.816685853,4.14422796,-12.189761425,0.1270063115,-67.754755,12.16606665,11.236047365,1.069394883,10.06180335,0.019957618575
4,6.5,0.821406535,0,0.821406535,4.036093023,-17.319027025,0.116779872,-59.141375,11.63399333,10.336980735,1.0728725905,10.069585,7.25319915075
4,7.5,-0.393303193,0,-0.393303193,18.960935645,-11.431917696,0.129417433,-24.364526165,11.799315015,5.06218587,0.962834751,10.09860665,51.4144694925
4,8.5,-4.2667921395,0,-4.2667921395,49.94869103,35.17371208,0.148854103,206.6764333,14.14498667,9.011762545,0.796892168,9.75,317.99952
4,9.5,-6.437554274,0,-6.437554274,92.39378203,91.371400055,0.2003470165,369.87361665,16.583886665,12.818872735,1.068015383,10.04083665,501.159075075
4,10.5,-6.6673052455,0,-6.6673052455,141.8702533,125.30940865,0.2515455405,478.07276665,19.079735,10.50651934,1.4496657765,9.96972,631.477275075
4,11.5,-6.439777862,0,-6.439777862,108.92099005,151.8913371,0.299509362,522.00943335,20.984153335,13.88871216,1.956269227,9.92889165,704.273325075
4,12.5,-5.978444281,0,-5.978444281,127.8678332,155.6252078,0.362619429,507.08206665,20.9593133,13.20414883,2.9790591675,9.94555335,711.94035015
4,13.5,-5.563936091,0,-5.563936091,94.87337304,157.0047362,0.363383918,438.5987833,20.779433335,16.73400218,3.136656985,9.93778165,646.589999925
4,14.5,-5.3616074785,0,-5.3616074785,67.847574875,140.18046995,0.376250019,317.55048335,20.827461685,16.0703117,3.226548552,9.88874665,519.058050075
4,15.5,-4.0994275635,0,-4.0994275635,75.684227405,93.40483569,0.324733515,175.002,20.121433335,14.841217485,2.8930086595,9.86069835,342.8709900075
4,16.5,-2.421755657,0,-2.421755657,49.32447375,26.98204297,0.277614007,15.674146665,19.30972167,10.47557325,2.6335830855,9.91444665,138.80088
4,17.5,0.203783829,0,0.203783829,18.810107405,-5.451427877,0.1568893405,-67.231625,16.800885,10.11657145,1.7668579355,9.999585,7.671234375
4,18.5,1.701995582,0,1.701995582,0.346737242,-14.047232605,0.11566644,-81.64315,14.94990835,14.685748135,1.288473407,10.02111,0.0253264455
4,19.5,1.7677529445,0,1.7677529445,4.279829835,-18.96216579,0.114415571,-77.18390333,14.145334985,13.4076227,1.4543705795,10.48334,0.020846035575
4,20.5,1.7932553945,0,1.7932553945,5.027911719,-17.148933955,0.116311049,-76.29378,13.7851333,12.486885125,1.556461072,9.94792,0.0187875
4,21.5,1.6070195935,0,1.6070195935,1.26041873,-20.318599525,0.113883819,-75.16716167,13.2875967,12.00163517,1.3940814625,10.00791835,0.0193725
4,22.5,1.890923089,0,1.890923089,3.515685707,-20.206033885,0.1095829625,-71.154293335,12.90394835,11.73936525,1.4624232325,10.01944665,0.017865
4,23.5,1.352400289,0,1.352400289,3.913004801,-15.072973255,0.1106746105,-69.37692667,12.825713335,10.70841035,1.237776219,9.89902665,0.015784868925
5,0.5,1.654456419,0,1.654456419,5.035403422,-21.00850242,0.1321547125,-68.961968335,13.508815,10.87901965,1.0962623815,7.989722,0.0187875
5,1.5,0.9772616825,0,0.9772616825,2.412581417,-13.071065395,0.122589602,-68.40765333,13.266251665,10.55942451,0.9849435355,7.96041715,0.019665234
5,2.5,1.437099599,0,1.437099599,6.198599779,-21.08106719,0.116394239,-70.255773335,12.933316665,10.7206079,0.9994915145,7.97958285,0.0187875
5,3.5,1.104308849,0,1.104308849,6.742907508,-17.906916805,0.130033559,-68.523033335,13.49871,11.17522588,1.008931827,8.03444465,0.01611
5,4.5,1.471090788,0,1.471090788,10.37039662,-24.39719307,0.124805101,-68.236875,12.89712,10.45832547,1.399907577,8.03972235,0.01787748615
5,5.5,1.617971048,0,1.617971048,5.649072731,-23.043651625,0.1325732725,-67.811611665,12.45113665,10.29830416,1.300892227,8.04666715,0.047375343
5,6.5,0.40687941,0,0.40687941,17.76741182,-17.33790888,0.1221457515,-51.338481665,13.25018665,9.023420765,1.1670829245,8.0534725,24.4155848985
5,7.5,-1.543181515,0,-1.543181515,17.60651391,-0.9290700505,0.145115734,34.4465725,14.32791165,10.68091253,0.958921515,8.02138885,123.542114985
5,8.5,-5.593345818,0,-5.593345818,67.13587983,55.12966415,0.181851682,282.1936333,16.53811,17.73941728,0.933361207,6.27,398.245635
5,9.5,-7.1281642055,0,-7.1281642055,113.1399088,95.691439235,0.193835419,444.4134333,18.6505545,22.2415584,0.973899079,6.12,571.71886515
5,10.5,-7.046582243,0,-7.046582243,164.8590938,126.60652455,0.2646391715,547.33658335,20.68027667,23.1243825,1.6570321345,7.796389,691.634925
5,11.5,-6.756817137,0,-6.756817137,130.1929866,153.3067242,0.3099715095,589.56711665,21.819984985,22.77710627,2.468667508,7.82999985,751.5004275
5,12.5,-6.9716837685,0,-6.9716837685,116.4608621,173.22832115,0.384463245,569.03261665,22.754918335,23.08414798,3.0552440935,7.714722,771.089625
5,13.5,-6.858254815,0,-6.858254815,147.63681025,174.8663665,0.4038188585,492.94701665,22.40036665,20.71945652,3.1108181325,7.6549995,703.440375075
5,14.5,-6.344388344,0,-6.344388344,144.5460364,157.11397315,0.419469699,370.21251665,22.076064985,19.77476908,3.1693534295,9.315833,578.116755
5,15.5,-5.1238051815,0,-5.1238051815,88.02689001,123.37161585,0.375536662,208.8297,20.94431165,18.90518153,2.980941476,7.836389,394.4544525
5,16.5,-3.335146797,0,-3.335146797,67.930187175,52.880056005,0.313347013,36.88306525,19.89132335,17.26188824,2.4597209955,7.823195,189.831292515
5,17.5,-0.368656488,0,-0.368656488,20.42469034,0.56554191,0.177128451,-52.438238335,17.978795,12.40940915,1.512509452,7.80930635,19.6113184515
5,18.5,2.125113385,0,2.125113385,5.6105387665,-17.459545085,0.126662565,-80.93316,15.717546665,12.62327368,1.2458284775,7.79083315,0.050056965
5,19.5,2.583248669,0,2.583248669,5.782150668,-21.166351045,0.102954425,-74.48882667,14.88825,11.4954222,1.183806432,7.84055565,0.021458995425
5,20.5,2.471370841,0,2.471370841,3.3788412565,-22.550591065,0.105568257,-73.4121,14.805128335,10.69958908,1.4423346425,7.85055635,0.019665
5,21.5,1.6490074405,0,1.6490074405,3.590626247,-19.40148661,0.118705659,-72.50086167,13.98799,11.418847625,1.339580743,7.8266665,0.020548073925
5,22.5,1.4128340565,0,1.4128340565,2.1282887595,-14.23576992,0.1389652805,-71.242321665,14.43192335,10.89310178,1.127371178,7.82222265,0.02055911085
5,23.5,0.937417975,0,0.937417975,1.660547854,-15.46285148,0.119306797,-69.14426167,14.083616665,11.18508177,0.9687085295,7.80305585,0.020846034
6,0.5,1.832717097,0,1.832717097,2.8778750365,-13.71679516,0.13128908,-67.90466167,12.09003835,10.21565676,1.1117844375,6.544722,0.018771372
6,1.5,2.277532228,0,2.277532228,2.5017223685,-9.0927471465,0.1036197605,-67.158225,11.772205015,10.42845418,1.0358976725,6.53666715,0.0169875
6,2.5,1.748175315,0,1.748175315,2.598768131,-14.03161498,0.1195635725,-69.60599833,11.5307667,9.78528788,1.2344259695,6.57208365,0.017573290425
6,3.5,1.1916793065,0,1.1916793065,1.0194752675,-12.06305551,0.115641545,-69.29657667,11.35903665,10.0502609,1.1472654035,6.5372225,0.0169875
6,4.5,1.463622427,0,1.463622427,3.8751685945,-17.29733368,0.118931865,-69.544345,11.30722,10.22010073,1.141399994,6.5412505,0.017871247575
6,5.5,1.54599661,0,1.54599661,6.642639026,-18.19953077,0.1225125465,-68.1383,11.211285015,10.356321505,1.038014193,6.56736115,0.601875722925
6,6.5,-0.336138018,0,-0.336138018,3.6467975315,-7.7356438815,0.1259679745,-43.87307167,11.155675015,8.58745217,0.981593439,6.54138885,36.68431875075
6,7.5,-4.161692205,0,-4.161692205,38.565113625,22.95268932,0.1523605645,118.90712165,12.877360015,11.72349059,0.7025571735,6.50652765,240.2029500075
6,8.5,-6.649882252,0,-6.649882252,68.770583995,74.90888206,0.214714348,320.07251665,15.42359,14.608766475,1.074977785,6.35805535,450.5706150075
6,9.5,-7.21939809,0,-7.21939809,106.407006,127.8219722,0.2736628755,469.8965,17.629953315,15.82944597,1.573801699,6.3125005,640.0344375
6,10.5,-7.407864974,0,-7.407864974,108.0110763,171.20777825,0.3140806205,565.3378,19.549071665,16.815803295,2.423543619,6.331111,756.16596
6,11.5,-8.5972386175,0,-8.5972386175,136.1677523,206.13845585,0.3869478005,604.9184167,19.50659165,16.42668187,3.1148772605,6.284722,810.496649925
6,12.5,-8.3342190205,0,-8.3342190205,133.9492387,219.0220345,0.4185920995,578.338,19.31968,16.90523169,3.485468451,6.278611,810.804075075
6,13.5,-7.996657989,0,-7.996657989,102.534420595,205.83082775,0.4187040425,501.4352,19.458071665,18.17111037,3.387927004,6.26763885,734.705325
6,14.5,-7.395582756,0,-7.395582756,103.13784912,185.10362335,0.411025107,373.84621665,19.39802835,16.54369713,3.423885063,6.36805535,600.553275075
6,15.5,-6.016521976,0,-6.016521976,75.05407131,150.72183875,0.397422928,223.2822833,18.467266665,16.21637703,3.235251887,6.52999965,428.8947000075
6,16.5,-4.35190384,0,-4.35190384,48.912052615,84.15858769,0.329856757,76.50893183,17.75571165,15.149930295,2.741362058,6.4823615,218.1906675
6,17.5,-1.291692254,0,-1.291692254,16.08137999,11.887739035,0.2350967025,-38.873415,15.982923335,7.82983161,2.052738033,6.4547215,45.8352135
6,18.5,1.629817223,0,1.629817223,5.5899535965,-10.11891841,0.143607561,-80.18478833,13.46204835,12.38023525,1.4237312395,6.40194415,0.314643834
6,19.5,2.0082953665,0,2.0082953665,2.6629656085,-10.875941635,0.1186453055,-77.432878335,12.87587833,10.981841245,1.2183288405,6.403194,0.022635
6,20.5,2.300035607,0,2.300035607,5.2578077175,-15.50797315,0.1004469235,-77.20309,12.555558335,10.750669625,1.513652669,6.39083285,0.020548078425
6,21.5,2.373079392,0,2.373079392,2.871101247,-15.67517653,0.12615743,-75.601065,12.37733,10.7119636,1.500139097,6.418611,0.0187875
6,22.5,2.786831973,0,2.786831973,3.010452027,-11.21398454,0.107192176,-71.74123667,12.17913,10.051536015,1.3797794005,6.46027835,0.017280784575
6,23.5,1.654579898,0,1.654579898,1.9342917985,-9.040509717,0.1249226625,-69.90535,12.122031685,10.56029062,1.2062496335,6.51888885,0.018175444425
7,0.5,1.810866608,0,1.810866608,1.917800057,-15.27838179,0.111224834,-72.075605,12.10517165,9.59362172,1.209435898,5.37,0.0199575
7,1.5,1.863653008,0,1.863653008,2.389291143,-16.718437305,0.121778247,-70.901721665,11.93294665,9.39109583,1.2078671755,5.33222215,0.017280789075
7,2.5,1.7506787945,0,1.7506787945,2.053315086,-16.309599205,0.1279432105,-69.674356665,11.80039665,9.42021927,1.064904722,5.3331945,0.0193725
7,3.5,1.438963888,0,1.438963888,2.901203262,-15.31440858,0.1217855725,-68.291073335,11.394341685,7.04117215,1.007400482,5.335,0.016695
7,4.5,1.3516362775,0,1.3516362775,3.348959495,-13.156154545,0.1195120285,-68.169238335,11.179175,8.77752876,1.026669168,5.315,0.017877489075
7,5.5,1.120502311,0,1.120502311,4.252412792,-19.43077432,0.1133965685,-60.3366,11.455379985,10.08322586,1.1092242025,5.315,4.31890369515
7,6.5,-0.592872783,0,-0.592872783,12.69421826,-2.519340957,0.1111014655,-6.6450903315,12.303848315,6.427507685,0.746315467,5.265139,62.137107
7,7.5,-5.501333369,0,-5.501333369,43.774097125,54.37964465,0.143726465,188.2888,14.300075,12.877053295,0.6761967785,5.235,296.2211550075
7,8.5,-7.2053202005,0,-7.2053202005,84.892892275,101.08416925,0.195579433,371.59673335,16.33629335,15.61763319,1.147911505,5.17305535,505.871849925
7,9.5,-7.379657101,0,-7.379657101,102.6829583,154.2426617,0.280409788,508.5507333,17.922931685,16.53134153,1.426199578,5.1394445,668.4045975
7,10.5,-7.225454063,0,-7.225454063,114.70378885,190.2981361,0.3482028875,588.44325,19.500516665,18.28436971,2.337376785,5.11236115,759.72247515
7,11.5,-7.58594019,0,-7.58594019,124.8404387,214.9278384,0.387160408,621.1008333,19.956931665,19.769434,3.124862175,5.12,826.2342
7,12.5,-7.668539123,0,-7.668539123,120.883662,233.18165365,0.4220150495,592.247,20.870251665,19.46342623,3.277583571,5.13,825.411300075
7,13.5,-8.045506056,0,-8.045506056,131.6381913,243.2183987,0.4416174695,517.4457,20.652425,19.0725906,3.477579905,5.145,750.2724
7,14.5,-7.2508579,0,-7.2508579,114.6053138,220.30885825,0.431221477,399.64336665,20.539313315,19.19596644,3.466601637,5.285,628.24575015
7,15.5,-6.33919191,0,-6.33919191,78.47787545,174.4394932,0.388843794,233.2612,19.573370015,17.53601044,3.00562101,5.29,447.234645015
7,16.5,-4.537279964,0,-4.537279964,54.293113135,108.0503534,0.301698888,73.059251665,18.7015383,16.452666,2.46347813,5.35833335,250.5122700075
7,17.5,-0.9727329305,0,-0.9727329305,24.46513976,18.192316335,0.2476618415,-30.789176665,17.4611633,11.39290482,2.0794754575,5.39,59.72604525
7,18.5,1.84362817,0,1.84362817,4.608953683,-10.99207907,0.142307301,-86.920068335,14.99537835,14.500383595,1.529189613,5.39861115,0.469284127425
7,19.5,2.03335184,0,2.03335184,-0.157561068,-11.5635496,0.1207841305,-82.551006665,13.969166665,11.14518292,1.0879387915,5.385,0.024433787925
7,20.5,2.0971341835,0,2.0971341835,2.120966922,-13.422788415,0.1077824375,-77.693603335,13.4359533,10.17603836,1.0442201075,5.425,0.0193671585
7,21.5,1.1698353795,0,1.1698353795,0.181433677,-11.06798694,0.1014402255,-75.52119,13.04848665,10.49459586,1.100993932,5.38,0.019963185075
7,22.5,1.827964952,0,1.827964952,3.268047635,-11.813248385,0.107210757,-74.501786665,12.55590335,10.26889393,1.0922696975,5.38347265,0.01728
7,23.5,2.204723766,0,2.204723766,1.275335916,-13.030198835,0.108673415,-74.484991665,12.63002,10.19475783,1.059278087,5.4070835,0.01787748435
8,0.5,1.4868622985,0,1.4868622985,1.031430422,-14.12316106,0.1436877275,-73.463665,13.75992,11.51542518,1.224209211,5.11333315,0.021143994075
8,1.5,1.556636115,0,1.556636115,1.328912948,-14.16206814,0.12863128,-71.55774,13.436981665,11.35476879,1.141406063,5.11666685,0.019372618575
8,2.5,1.3823884,0,1.3823884,1.150046334,-11.646147955,0.11432939,-72.10006833,12.877741665,11.06320741,1.1583233185,5.0533335,0.018495
8,3.5,1.4205554645,0,1.4205554645,2.850925028,-11.041235205,0.1254375905,-72.082548335,12.874936685,10.82522115,0.994690631,5.08,0.017865
8,4.5,1.705035311,0,1.705035311,0.641606753,-13.732231585,0.11450117,-70.616043335,12.66528333,10.51843454,1.1169381945,5.06597265,0.029497842
8,5.5,0.484098434,0,0.484098434,4.117606939,-8.4127458535,0.1157892205,-57.380323335,12.529748335,9.44335191,0.920422337,5.03402815,16.379660925
8,6.5,-2.707002179,0,-2.707002179,21.40318828,13.033557925,0.130948295,65.645138215,13.69636,7.20110352,0.628218172,5.03055585,150.3935399925
8,7.5,-5.413190078,0,-5.413190078,54.88993342,74.57932224,0.190081049,241.5606,16.83074667,15.212045445,0.8329540355,5.01,364.1660475075
8,8.5,-6.785174503,0,-6.785174503,79.01849752,132.9431653,0.275009744,412.7595667,19.4575367,16.77410165,1.488915133,4.97,566.82585
8,9.5,-7.22555576,0,-7.22555576,106.0808055,201.16557055,0.311740188,542.44053335,21.159772035,18.67193023,1.8344678555,4.864861,725.42129985
8,10.5,-8.120428085,0,-8.120428085,125.0591545,254.3057164,0.422146773,619.25655,22.5224,20.26922509,3.178152175,4.88930585,840.7746
8,11.5,-7.703673385,0,-7.703673385,102.7373325,282.1224801,0.465054572,633.8949667,23.02113667,21.36736508,3.545074391,4.8441673,888.24884985
8,12.5,-7.849674709,0,-7.849674709,100.6009857,293.671846,0.505217299,604.72385,23.741943335,20.67386558,3.822983971,4.88444435,881.66422485
8,13.5,-7.0503914055,0,-7.0503914055,112.2426132,281.40928585,0.4758968035,524.8177167,23.365748335,20.223170505,3.523571979,4.96958335,796.092450075
8,14.5,-6.7768239415,0,-6.7768239415,83.479053405,259.19020625,0.467842715,406.3813,23.618331665,19.74287192,3.4928268275,4.9932526,666.68947515
8,15.5,-5.645870062,0,-5.645870062,86.57484201,212.56287695,0.429421037,247.51798335,22.68885833,18.88163271,3.3148474215,5.03791685,491.72261265
8,16.5,-4.366922817,0,-4.366922817,52.15520104,129.4053285,0.357245084,100.680323335,21.301506665,18.09557049,2.7782386655,5.09111085,278.681542515
8,17.5,-1.8397674145,0,-1.8397674145,17.75167901,43.700827335,0.2931973055,-30.4142774,19.474805,11.40118297,2.2930539565,5.13,93.1152300075
8,18.5,1.1354690735,0,1.1354690735,3.32824036,-8.845079458,0.171794714,-94.51068,16.729398335,13.812555085,1.4785641415,5.19972185,4.45656036825
8,19.5,2.037281544,0,2.037281544,0.346588912,-13.14210657,0.119818627,-87.31872,15.387388335,12.91460403,1.2609120975,5.20694385,0.0241425
8,20.5,1.79934111,0,1.79934111,-0.636974087,-12.855842415,0.120160445,-81.48722833,14.62846667,11.94098917,1.281812833,5.2044445,0.020846027925
8,21.5,1.71387286,0,1.71387286,0.712435561,-16.310735985,0.136641019,-79.33761167,14.557331665,12.34528923,1.397595385,5.1536115,0.021458994075
8,22.5,1.491614686,0,1.491614686,1.329936615,-16.25612276,0.1409064395,-77.94882,14.135140015,12.27546554,1.535372709,5.12013885,0.020548082925
8,23.5,1.658222833,0,1.658222833,1.397664777,-15.380041355,0.121411771,-75.402935,13.900916665,11.87869575,1.3795575095,5.0790275,0.019665118575
9,0.5,1.6603207205,0,1.6603207205,0.904151438,-2.4326360865,0.116228969,-43.15540667,12.160573315,10.81686463,1.0164341315,4.8211115,0.017579522925
9,1.5,1.736522744,0,1.736522744,0.891050677,-7.167095439,0.1335596395,-42.697763335,11.99242835,9.495886,1.0642966325,4.86027685,0.0154938105
9,2.5,1.511194165,0,1.511194165,2.045479855,-2.72887543,0.127335497,-38.79978833,11.89731,11.16946226,1.013760506,4.8406945,0.0166856535
9,3.5,1.4542958655,0,1.4542958655,4.6858954995,-1.228762064,0.1138938185,-34.766778335,11.856859985,10.70372409,0.896216522,4.835417,0.0172807875
9,4.5,1.342678934,0,1.342678934,1.711896374,-2.510170787,0.122140019,-35.650905,11.613,11.323093175,1.0034133725,4.8080555,0.05512228065
9,5.5,0.663308151,0,0.663308151,5.9035645045,-0.000228635499999991,0.1421650345,-23.781903335,11.697646665,8.65669746,1.0225993685,4.82,18.80772075
9,6.5,-2.9769042375,0,-2.9769042375,24.36139654,19.111322885,0.1617858605,63.712846335,12.553578335,5.106508025,0.989098963,4.79,139.115505015
9,7.5,-4.2792328595,0,-4.2792328595,43.99955513,73.881626885,0.235520117,227.81206485,13.82181665,13.59071581,1.261411823,4.77819435,328.704082515
9,8.5,-4.917527843,0,-4.917527843,56.92772478,120.63312585,0.255404142,408.09221665,15.251281665,14.46646702,1.7520966175,4.7059725,522.7346475
9,9.5,-5.561317833,0,-5.561317833,65.09803261,186.6746505,0.327989594,527.0897,16.658713315,17.09161789,2.710026871,4.66972215,698.02079985
9,10.5,-6.392832724,0,-6.392832724,79.90580987,247.12761835,0.418415102,596.93125,17.429318335,15.72353981,3.399871098,4.62111085,762.3478575
9,11.5,-6.648903515,0,-6.648903515,77.6491139,283.3405771,0.418819337,637.79743335,17.992863335,17.23395579,3.733453332,4.64333315,861.5295
9,12.5,-6.412830848,0,-6.412830848,72.2709436,292.07914935,0.433687078,587.12635,18.834695015,17.55355649,3.76202592,4.7245835,799.526115
9,13.5,-6.122120857,0,-6.122120857,65.11449304,290.8162889,0.4439995155,523.7190333,18.856701685,16.98358032,3.793071775,4.7924997,770.79195
9,14.5,-5.8295629695,0,-5.8295629695,56.50125048,273.49571625,0.440151705,404.7664833,18.676461685,16.93404956,3.568463463,4.74138885,650.396475
9,15.5,-4.965468499,0,-4.965468499,49.491028635,234.51015255,0.412255903,267.1179833,18.19915835,16.09766097,3.4768595955,4.8272225,483.5067525
9,16.5,-3.661453284,0,-3.661453284,36.673141945,157.81159345,0.366966612,118.33574335,17.884569985,16.169599445,2.9031090555,4.82444435,293.81931
9,17.5,-2.039309743,0,-2.039309743,19.918776675,67.89499497,0.3275551905,-5.514388267,16.550425,9.687314775,2.6048631605,4.89472235,99.6241425075
9,18.5,1.194894596,0,1.194894596,4.475373439,5.2014430545,0.216098297,-76.428346665,14.387889985,12.647399145,2.082165285,4.90055615,2.678645310075
9,19.5,1.8510662455,0,1.8510662455,0.327622973,-4.0043197945,0.1489416585,-76.294263335,13.614633315,11.58365373,1.5447443875,4.8813887,0.02025
9,20.5,1.4813059555,0,1.4813059555,0.4981162975,-4.02229093,0.139433258,-61.09719,13.163653335,10.71571425,1.393859744,4.85694465,0.019665
9,21.5,1.598376819,0,1.598376819,0.530097678,-4.2038367475,0.126114872,-61.06793,12.84708665,10.03730703,1.093879919,4.86513885,0.01489644
9,22.5,1.4247834615,0,1.4247834615,2.139356396,-1.0267531185,0.1327863905,-46.36186,12.743156665,10.737481325,1.116935385,4.89597185,0.0169875
9,23.5,2.0465222345,0,2.0465222345,2.1201989365,-3.547511971,0.120150414,-45.292328335,12.221705,10.98630547,1.115153933,4.8952785,0.0134175825
10,0.5,1.3618255755,0,1.3618255755,0.902852561,-1.0010873125,0.13572015,-34.584481665,12.37532835,10.86873619,1.122497271,4.99249985,0.016695
10,1.5,1.355815502,0,1.355815502,0.875370229,0.5894726985,0.115072224,-30.547876665,12.46141335,10.83886921,1.127950159,5.0052775,0.0169875
10,2.5,1.284704732,0,1.284704732,1.2814946885,-0.037517895,0.1255220635,-30.970751665,12.632315,11.00548708,1.116905343,4.97013915,0.0164025
10,3.5,1.337079315,0,1.337079315,1.168720651,-0.5892757585,0.1292189795,-32.750505,12.532545,10.822346535,0.9846671195,4.97,0.0169875
10,4.5,1.5804553965,0,1.5804553965,1.458358529,-1.6757069975,0.1184003935,-30.441858335,12.52559165,11.584091865,1.1720538055,4.9329165,0.379002861
10,5.5,0.3352910815,0,0.3352910815,4.163122409,4.4984345695,0.1261610145,-13.8627245,12.4531617,8.693191935,0.878396816,4.92,26.60499299925
10,6.5,-2.322681113,0,-2.322681113,15.0348842,27.358664985,0.1721562425,58.109498335,12.996188315,7.64096864,1.019661696,4.8958335,125.71515
10,7.5,-4.632350089,0,-4.632350089,32.11464588,97.6116533,0.187694802,275.7155,14.3576233,13.60435238,1.120239015,4.9425,379.127475
10,8.5,-5.450893468,0,-5.450893468,40.622142375,163.849158,0.262903038,431.28856665,15.68377165,16.41211974,1.3730135455,4.88958335,553.344225075
10,9.5,-6.181644456,0,-6.181644456,43.625971605,255.4414793,0.3692869035,543.708675,17.22668835,17.08585732,2.1532131745,4.83013885,709.256099925
10,10.5,-6.017301997,0,-6.017301997,46.52454455,288.7700832,0.4016352875,616.29423335,18.20642665,17.98574727,2.841077337,4.82,797.624070075
10,11.5,-6.501135179,0,-6.501135179,47.54470026,342.0105517,0.4493335685,638.51631665,18.541058315,19.22232281,3.663945028,4.83,861.612802425
10,12.5,-6.3001568305,0,-6.3001568305,44.17083642,336.8766398,0.481473133,608.15746665,18.940266665,19.13114738,3.6066323375,4.8525,848.791717425
10,13.5,-6.644674794,0,-6.644674794,56.050255885,341.94846525,0.473154188,535.66863335,19.30330335,20.032432735,3.612765362,4.88430565,789.86235015
10,14.5,-6.144024217,0,-6.144024217,50.402300165,327.06513305,0.470661829,436.21575,19.23780165,20.073073565,3.6190328935,4.915,672.77979765
10,15.5,-5.0398776,0,-5.0398776,31.06614415,279.38651775,0.4515982885,282.83329,18.5243767,18.64075434,3.440629049,4.95375015,520.22039985
10,16.5,-4.190145003,0,-4.190145003,22.88585923,197.9371373,0.4112624195,114.966885,18.070425,17.47583808,3.138808232,5.08,328.72779
10,17.5,-2.1882271755,0,-2.1882271755,10.130612828,87.41917306,0.336085127,2.9716308115,16.41476665,13.13626827,2.7422752335,5.06069435,127.244565
10,18.5,0.931565067,0,0.931565067,0.729277888,15.099344345,0.2336761795,-78.851643335,14.586099985,12.10586461,1.9895979875,5.07000015,7.46594145
10,19.5,1.541110798,0,1.541110798,-1.305464713,-3.726185865,0.155125986,-84.4284,13.85295335,12.647858,1.396013889,5.095,0.031583567925
10,20.5,1.59017375,0,1.59017375,-0.7917010905,-1.066451308,0.132048418,-76.42545667,13.461261685,11.500055755,1.236389925,5.07874965,0.019957618575
10,21.5,1.408035516,0,1.408035516,-0.194804801,3.6600402545,0.120314349,-55.229495,13.37141165,10.52090886,1.1187730225,5.0836105,0.017573281425
10,22.5,1.451934538,0,1.451934538,-0.500183998,-0.596935299,0.1259863495,-66.16137,13.016278335,11.00016837,1.244800159,5.05,0.020255564925
10,23.5,1.30798199,0,1.30798199,0.2818093305,-2.8153561655,0.1217217295,-47.589473335,12.953923315,11.215123955,1.2053545525,5,0.0175732875
11,0.5,1.365318021,0,1.365318021,-0.255102141,1.1462441005,0.1174461455,-30.49991,13.810358335,2.79784391,0.9878636315,4.82999935,0.016690330575
11,1.5,1.322276391,0,1.322276391,0.188637247,4.107278924,0.1322409645,-20.743595,13.696905,2.38161595,0.8532146055,4.8227775,0.015791785425
11,2.5,1.3875427945,0,1.3875427945,-0.831473146,4.900129564,0.139285633,-19.867378335,13.465475,2.155456365,0.913012749,4.79319415,0.01340810865
11,3.5,0.58432472,0,0.58432472,-0.544281052,6.5879061455,0.122842561,-20.419786665,13.52122167,2.12063128,0.8698048885,4.795833,0.01430199585
11,4.5,1.1301359905,0,1.1301359905,3.179895151,7.1429406115,0.121629995,-20.810996665,13.44123165,2.26080251,0.8268010165,4.78208335,0.803593221075
11,5.5,-0.432178133,0,-0.432178133,2.22086994,9.5660797015,0.1363408365,-11.6792735,13.496773335,2.45337139,0.7305776345,4.77041635,28.60190775
11,6.5,-2.644804546,0,-2.644804546,17.019168905,37.6565894,0.16053763,80.81227167,13.994695,4.43890742,0.789490764,4.76,145.2287324925
11,7.5,-4.1851596055,0,-4.1851596055,28.95455412,99.631338165,0.202603456,283.54595,15.484254985,9.375882465,1.2496566975,4.67777815,393.200902485
11,8.5,-5.0474159025,0,-5.0474159025,47.70085571,183.5371942,0.314206042,435.0594833,17.599246665,10.721806565,2.0308400335,4.6474995,571.742174925
11,9.5,-5.7438343635,0,-5.7438343635,60.04355435,246.7337708,0.357301893,545.10295,19.685615,12.031944885,3.075634803,4.61333315,718.039950075
11,10.5,-6.603803277,0,-6.603803277,63.21032062,312.8211991,0.4668736505,622.37246665,20.705046665,14.444519175,3.6637824115,4.60388915,829.2699
11,11.5,-6.8941283825,0,-6.8941283825,71.09311486,365.6854263,0.4756495035,647.1000167,21.497644985,16.252792595,3.9523899265,4.59055565,878.76675
11,12.5,-6.2439581275,0,-6.2439581275,53.057110255,359.40556635,0.498699566,612.40701665,22.013161665,16.73476793,3.8497928835,4.57875,869.067749925
11,13.5,-6.315044956,0,-6.315044956,70.41203468,363.7476748,0.466473373,536.8270333,21.87605667,16.37824496,3.6334097455,4.6481943,798.734324925
11,14.5,-6.0384855975,0,-6.0384855975,68.331634955,336.1619399,0.460134522,438.2611167,21.882148335,16.39290786,3.5547830675,4.7450008,688.91999985
11,15.5,-5.2456679855,0,-5.2456679855,52.646952645,293.9514937,0.455897075,300.0153167,21.72227833,15.939836245,3.705486219,4.742361,537.84592515
11,16.5,-4.3801827385,0,-4.3801827385,29.333803365,225.89807295,0.427195975,135.59804,21.15495,14.26638338,3.5559707235,4.8684723,353.3573400075
11,17.5,-2.891306062,0,-2.891306062,16.99087226,125.95400035,0.3733697165,16.28291323,19.489703335,9.98459679,3.27189996,4.80125,164.7214724925
11,18.5,0.130106286,0,0.130106286,-0.9385521665,29.380630165,0.2871803725,-75.73826333,16.89560667,6.853939665,2.5838281895,4.8100003,15.0409366515
11,19.5,1.6432163695,0,1.6432163695,-3.332035504,-3.617602365,0.1889180545,-83.16673,15.092666665,5.56971412,1.597643492,4.81750015,0.056314098
11,20.5,1.732062414,0,1.732062414,-1.3875344175,-1.6314549265,0.140325008,-73.26555167,14.506740015,4.70923861,1.064432212,4.7755555,0.019665
11,21.5,1.542933515,0,1.542933515,-1.4216085945,0.7053283335,0.108670737,-67.012875,14.259156665,4.36574016,0.777486152,4.79874985,0.018473406075
11,22.5,1.322174037,0,1.322174037,-1.383573734,1.320229434,0.099629276,-62.01729833,14.423746665,3.679016985,0.846613963,4.7751392,0.01668565485
11,23.5,1.178280935,0,1.178280935,-1.642238399,-0.600358037,0.0964216235,-60.41311333,14.24158,3.180638065,0.73719119,4.84597215,0.016695
12,0.5,1.447766544,0,1.447766544,-4.810263474,-10.26315958,0.112254764,-70.90461,18.120786665,6.543020225,0.8519254875,4.88930535,0.022942771425
12,1.5,1.603964303,0,1.603964303,-1.1213893625,-6.7251683245,0.1018654635,-66.634125,18.472505,5.96104888,1.0414371155,4.90125,0.0226448235
12,2.5,1.69309246,0,1.69309246,0.359103996,-3.2174076555,0.138894983,-62.10173,17.75929,7.6061461,0.9101375145,4.90583335,0.022942789425
12,3.5,0.76777402,0,0.76777402,3.399613367,-3.463207488,0.1597106825,-58.14595,16.485235,8.373285325,0.9623374045,4.970001,0.0187713675
12,4.5,0.766402623,0,0.766402623,5.737215513,-4.478846777,0.124960577,-65.62912,15.998081665,7.90079601,0.8426800625,4.99041715,1.652178205575
12,5.5,0.310201457,0,0.310201457,11.51775946,-6.9763713365,0.118074394,-42.316623335,16.630236665,8.943189455,0.6308749035,4.9405558,36.53385599925
12,6.5,-2.065742143,0,-2.065742143,40.93711557,39.46952752,0.187678335,102.210891515,19.94552667,16.25994825,0.7505940665,4.8293057,208.6503075
12,7.5,-3.24457576,0,-3.24457576,44.09484758,117.6292553,0.209713541,276.85365,22.377443335,18.04392706,1.040330368,4.7587505,387.522727515
12,8.5,-3.342134787,0,-3.342134787,56.01998461,168.51296825,0.2765888705,428.86193335,26.81051,23.09488216,1.4918495605,4.7336115,572.80177485
12,9.5,-3.536218877,0,-3.536218877,73.61747817,243.08677475,0.3906949685,538.31418335,27.03201667,25.751875195,2.952356501,4.699166,736.73711235
12,10.5,-4.1407805485,0,-4.1407805485,87.93914229,319.8306079,0.4832701235,603.71355,27.570266665,26.565187945,3.752723279,4.66361085,839.176049925
12,11.5,-4.3369207485,0,-4.3369207485,102.74514964,346.5853313,0.512448682,628.6511,27.981446665,24.73878092,3.876674657,4.62250085,884.434574925
12,12.5,-4.949182413,0,-4.949182413,89.61657008,397.47187465,0.533549468,605.41511665,29.3502,27.30513148,3.681383482,4.6786108,878.618475
12,13.5,-4.8338595205,0,-4.8338595205,86.93344775,390.77022915,0.532803343,534.27878335,29.606958335,28.22124988,3.9881586445,4.71319465,816.789300075
12,14.5,-4.456558546,0,-4.456558546,81.01927862,357.3458073,0.5103720445,433.6395,29.93098667,28.240684455,3.9322691615,4.915555,742.00829985
12,15.5,-3.8234062735,0,-3.8234062735,72.8578177,312.4272187,0.5031202,303.72298335,29.164846665,27.031503515,3.8452946595,4.993611,556.00979985
12,16.5,-3.106746477,0,-3.106746477,52.23924444,218.00767145,0.4645875075,138.91788335,28.128768335,26.532737395,3.4318144855,4.94444415,371.99997
12,17.5,-1.961392925,0,-1.961392925,24.98740771,133.58418995,0.392393089,5.7995774515,25.96765,20.196174595,3.2988724545,4.93652835,177.917992515
12,18.5,-0.415184134,0,-0.415184134,4.747970704,29.21810597,0.263283647,-86.672521665,23.53288833,12.299655345,2.292207335,4.93625015,46.19992575825
12,19.5,1.475734485,0,1.475734485,-4.678891602,-6.815753981,0.146537583,-95.572788335,20.921386665,8.599117955,0.9601874275,4.95722215,0.359635574925
12,20.5,1.147233464,0,1.147233464,-4.5667480535,-4.6177017505,0.1109550785,-84.066935,19.514875,6.323193625,0.833372359,4.9402782,0.0321794775
12,21.5,1.154572445,0,1.154572445,0.353811368,-1.9254620855,0.096919169,-76.70777833,18.654615,5.43428597,0.897518305,4.9413882,0.026518282425
12,22.5,1.159568503,0,1.159568503,-2.9630629515,-9.0237697895,0.1127878545,-72.571865,18.195078335,4.7271751,0.8559059495,4.9458332,0.0277101
12,23.5,1.03030441,0,1.03030441,-0.8921703035,-5.0876642985,0.0940036445,-68.059855,18.650635,5.72377983,0.654273737,4.936528,0.023240736
13,0.5,1.14585284,0,1.14585284,0.114256066,-2.4373723895,0.093674164,-55.168098335,16.66675,2.37321406,0.6673850915,4.235833,0.023240737575
13,1.5,0.828544948,0,0.828544948,0.656083928,-2.324634951,0.106645471,-52.14392833,16.915565,2.54640673,0.6096340035,4.2481945,0.0208570725
13,2.5,0.951256733,0,0.951256733,2.340932611,-0.62711531,0.1020824355,-52.226688335,17.286265,2.146345735,0.7010323435,4.2236112,0.021452982075
13,3.5,0.626916515,0,0.626916515,1.626484991,-2.9810128495,0.1231104825,-49.013518335,17.619245,2.06127727,0.6909195895,4.163889,0.022048904925
13,4.5,0.525206964,0,0.525206964,0.9038210885,-2.32572086,0.119904173,-50.05211,17.295353335,1.863902885,0.6825368135,4.1430555,0.920393089425
13,5.5,0.0679820645,0,0.0679820645,4.247283253,-0.390019916,0.1217092105,-22.111993835,17.22746833,2.72307476,0.553640899,4.0552778,25.8416204985
13,6.5,-2.1274212515,0,-2.1274212515,23.711540015,44.010017715,0.1651105625,80.57983917,19.024791665,5.391020015,0.5383597185,4.05055565,162.319912515
13,7.5,-2.7856986425,0,-2.7856986425,35.252613765,108.57852635,0.2158223885,268.554,21.223871665,8.60702719,1.2627900485,4.01569365,394.332269985
13,8.5,-3.078097227,0,-3.078097227,46.36121709,189.2375718,0.3173209245,413.01846665,24.532103335,16.489183345,2.1654007195,3.96250035,578.475974925
13,9.5,-3.286398003,0,-3.286398003,55.979381795,260.0253043,0.3844211355,522.0015667,26.665465,19.82456533,2.82075077,3.9338892,715.80142485
13,10.5,-3.789691682,0,-3.789691682,70.06563359,318.6340887,0.47459298,593.4679333,27.93772,22.81752417,3.418124781,3.8913893,809.66264985
13,11.5,-3.5541695215,0,-3.5541695215,61.02249186,372.77694515,0.5326234675,627.13138335,28.258555,23.941585315,3.810538243,3.8568055,864.46387485
13,12.5,-4.002582767,0,-4.002582767,65.955400485,417.5661136,0.5579553935,612.9575333,28.761073335,25.324776915,3.978418585,3.8381948,860.967150075
13,13.5,-3.804681649,0,-3.804681649,60.2772274,400.40465305,0.5309977555,548.7628,28.740896665,25.856086285,3.778299736,3.93527835,819.945375075
13,14.5,-3.4026820505,0,-3.4026820505,57.0809337,381.29112175,0.521379549,429.95423335,28.663548335,26.419763565,3.858406127,4.006389,700.875675
13,15.5,-3.4192494235,0,-3.4192494235,46.40236894,337.2359035,0.518858471,301.43213335,28.255245,23.49242537,3.8076817195,4.112222,544.182525
13,16.5,-3.01705353,0,-3.01705353,33.69382759,241.4204662,0.4778777405,140.224985,26.96169333,20.81056829,3.594071502,4.2419445,356.7016275075
13,17.5,-1.846699048,0,-1.846699048,16.17033123,145.72949155,0.412669631,-0.377537667,25.825871665,18.58542266,3.297288997,4.272917,165.3462675
13,18.5,-0.074079332,0,-0.074079332,2.023374287,30.81478786,0.317934768,-73.929956665,23.37080667,12.149539675,2.7602142975,4.2702775,27.07814745
13,19.5,1.0510700195,0,1.0510700195,-4.333062796,-4.496172791,0.2072142935,-86.664141665,20.458946665,7.41434503,1.853057463,4.27708315,0.30600304065
13,20.5,1.284235072,0,1.284235072,-2.255239667,-3.926341806,0.126734919,-79.807731665,19.37799167,4.983886175,0.861971126,4.2576387,0.029199903075
13,21.5,1.371977542,0,1.371977542,-3.1032769405,-4.851173659,0.0959360445,-73.342541665,18.341921665,3.746033845,0.775056984,4.226667,0.02741213115
13,22.5,1.073713104,0,1.073713104,-1.092639215,-4.542897375,0.091307118,-66.146258335,17.980168335,3.383227725,0.686151092,4.2273615,0.0247305285
13,23.5,1.058304409,0,1.058304409,-4.40502017,-6.47006755,0.111695844,-61.17659,17.69975167,3.012681565,0.7483398835,4.24986135,0.024432554925
14,0.5,0.665738119,0,0.665738119,-1.3068157825,-3.287080464,0.096844211,-59.070855,18.84328,5.314079825,0.6023039865,3.51902885,0.02175093765
14,1.5,0.905884046,0,0.905884046,-1.575339055,-4.8779080425,0.1129172575,-57.26087,18.742736665,4.452822195,0.7096132275,3.4868055,0.022048893
14,2.5,1.025944417,0,1.025944417,-0.6700968085,-3.471728405,0.126190969,-53.802563335,18.131243335,3.62869699,0.7527825545,3.4834725,0.0208570635
14,3.5,0.493889544,0,0.493889544,-2.805534394,-4.980401566,0.109342479,-52.62197,18.166898335,4.230969765,0.692621042,3.5044447,0.020857068
14,4.5,0.430979481,0,0.430979481,-1.728792883,-4.0283840745,0.1167670415,-50.470915,17.918451665,3.55957401,0.6791885235,3.47083385,0.21929727015
14,5.5,0.401745033,0,0.401745033,5.573180412,-2.5774658645,0.115708207,-32.976946665,18.003593335,3.413906455,0.6860330475,3.4666665,27.46757549925
14,6.5,-0.865503687,0,-0.865503687,18.173884885,48.81835392,0.1741511035,79.371656665,19.124028335,4.84555748,0.763528297,3.476389,174.209054985
14,7.5,-2.235278214,0,-2.235278214,28.142818715,113.1927907,0.237468964,258.25611665,21.682878335,9.974375175,1.397036342,3.44972165,376.6937175
14,8.5,-2.4553621615,0,-2.4553621615,35.276803275,192.33182205,0.3418869955,394.31225,24.462113335,15.055579285,2.43132329,3.4275005,561.178199925
14,9.5,-2.8148527545,0,-2.8148527545,35.56813268,273.10139875,0.427459101,507.11585,26.279881665,17.95417,3.1765076495,3.4124997,718.003275075
14,10.5,-3.416728933,0,-3.416728933,40.378212405,335.64866645,0.5061238775,584.2019,27.019921665,19.837980155,3.771860327,3.43430665,821.577075075
14,11.5,-3.3591835425,0,-3.3591835425,44.72435179,389.8095621,0.520477108,617.2764667,28.192768335,22.17670335,3.803158947,3.414028,874.115325
14,12.5,-3.4603115355,0,-3.4603115355,47.41943967,420.9805428,0.5510159635,589.97476665,28.800535,24.94686121,3.9305763965,3.3954168,862.511625
14,13.5,-3.2558774355,0,-3.2558774355,35.47020752,415.24065465,0.5571658315,521.00138335,28.353555,23.70650399,3.973779727,3.3947225,810.353099925
14,14.5,-2.9062729535,0,-2.9062729535,33.14886336,376.8663029,0.524654024,414.6318,27.871655,22.93127256,3.793858326,3.4408328,695.397075075
14,15.5,-2.646281375,0,-2.646281375,27.04773217,313.652317,0.494786958,287.9923,27.17486167,22.346090605,3.6531671495,3.447223,534.848249925
14,16.5,-2.42118826,0,-2.42118826,17.323074015,241.913869,0.453705832,149.05398335,26.52098,20.555134755,3.5099351255,3.47666735,351.3875100075
14,17.5,-1.5968128965,0,-1.5968128965,10.68152668,137.42548355,0.3976864645,16.573858785,25.47815167,17.463953035,3.15410501,3.51666615,158.408294985
14,18.5,-0.0269890595,0,-0.0269890595,-4.1242272005,37.555513055,0.3130245935,-67.66912,22.907388335,11.42365688,2.7696293755,3.51902765,31.396761
14,19.5,1.161393006,0,1.161393006,-5.448589969,-1.3925159205,0.194957,-78.203061665,20.208018335,5.529163425,1.795637191,3.51041665,0.090877232925
14,20.5,1.4553036945,0,1.4553036945,-4.090794882,-2.3195942755,0.1315911055,-72.16938833,19.024013335,4.122832415,0.791532536,3.52694465,0.02443256865
14,21.5,0.930196563,0,0.930196563,-0.7003606275,-2.600343714,0.100466348,-68.02196,18.702786665,3.882122695,0.6086690365,3.51694485,0.0244325565
14,22.5,1.209818227,0,1.209818227,-1.3355762855,-2.9578229835,0.094630013,-63.44926667,18.616551665,4.11839119,0.8310052395,3.49263985,0.021452995575
14,23.5,1.00459859,0,1.00459859,-1.5771158335,-3.6254436735,0.096478979,-61.91703833,18.763268335,4.39150653,0.7434947685,3.48791615,0.0196652385
15,0.5,1.0064329695,0,1.0064329695,-0.1268116855,-1.024960055,0.1039475315,-55.633653335,17.81325,2.06465194,0.650786344,3.29555585,0.01966523715
15,1.5,0.552486475,0,0.552486475,-0.2233803735,-1.4685766075,0.0997121235,-52.257623335,17.366186665,2.005068615,0.5997055155,3.271806,0.019665227925
15,2.5,0.7516002075,0,0.7516002075,-0.293218941,-2.304939339,0.112717422,-50.479785,17.297718335,1.97155133,0.551754709,3.26333285,0.019069332075
15,3.5,0.5571441835,0,0.5571441835,-0.677563215,-2.0932084735,0.121830702,-44.479205,17.28983333,1.983536375,0.571740517,3.243889,0.0202611465
15,4.5,0.729467751,0,0.729467751,-0.4186683,-0.960735574,0.119480073,-38.40833667,17.307678335,1.84567665,0.6592621615,3.23486135,0.06614673165
15,5.5,0.285584101,0,0.285584101,0.1019930535,1.9383263845,0.135161637,-21.493158,17.331188335,1.717155755,0.654088141,3.23819515,16.27388399925
15,6.5,-1.060654403,0,-1.060654403,12.57146685,36.1939272,0.166365815,49.677473165,18.096435,2.688197615,0.583475063,3.22194415,120.801517515
15,7.5,-1.7965019945,0,-1.7965019945,24.773380225,113.2723771,0.233978828,234.62495,20.39698,6.699266905,1.128078579,3.24763885,320.4100199925
15,8.5,-2.3999563875,0,-2.3999563875,32.847484185,191.6761572,0.335480085,388.3951667,23.3059,11.16972308,2.109691712,3.195277,540.19049985
15,9.5,-2.488421713,0,-2.488421713,36.74975414,265.7355576,0.400503849,509.7563333,25.68294667,16.13344742,2.887472846,3.181945,694.38900015
15,10.5,-2.874122702,0,-2.874122702,36.67212125,348.2375489,0.5029855075,585.12583335,27.005466665,19.714670065,3.6250451045,3.1643058,807.933899925
15,11.5,-3.074066398,0,-3.074066398,26.87497337,401.02417875,0.5449055095,617.42256665,27.447275,20.404504885,3.9247921915,3.136528,860.268899925
15,12.5,-3.1658802925,0,-3.1658802925,26.02533261,417.5604396,0.5478219595,595.9828,27.80681,21.512884395,3.880933833,3.1490282,857.9142
15,13.5,-3.2285529445,0,-3.2285529445,20.88891709,421.6033129,0.5496281985,532.7082,28.17919,21.832096365,3.7555524995,3.203194,792.11257515
15,14.5,-2.9720702375,0,-2.9720702375,23.20130146,390.47847405,0.535859411,425.35915,27.838655,21.14807224,3.867424432,3.2184727,680.250375
15,15.5,-2.607259402,0,-2.607259402,17.98834315,324.2151945,0.5204328385,287.49188335,27.116723335,18.97105183,3.8650564805,3.2222225,512.268075
15,16.5,-2.0945292575,0,-2.0945292575,4.960742327,244.9512323,0.4933223175,124.94462335,26.215325,16.43693755,3.78599151,3.24680585,315.8705625075
15,17.5,-1.3068890665,0,-1.3068890665,1.5642058285,122.22820405,0.4298000345,12.317781515,24.416281665,12.633405645,3.5003448235,3.258473,134.403937515
15,18.5,0.6463995715,0,0.6463995715,-6.456851369,25.9881169,0.326704767,-73.232918335,21.756698335,7.57987596,2.8742864515,3.3090282,16.27060815
15,19.5,1.088481549,0,1.088481549,-7.0993820915,-0.2081300915,0.203599703,-78.19155833,19.958183335,4.55028198,1.835977135,3.3118057,0.0348611085
15,20.5,1.165508259,0,1.165508259,-5.177134716,-2.2198524785,0.1437165555,-72.24158,18.86839,3.012938685,1.234523804,3.3430563,0.023240737575
15,21.5,1.141059353,0,1.141059353,-3.4658872675,-3.0452858055,0.102573246,-67.678245,18.47436,2.59490741,0.9074967145,3.3076385,0.022048895925
15,22.5,0.699573486,0,0.699573486,-2.099232761,-3.3245709595,0.083187451,-63.84431667,18.27285,2.29937872,0.7041345615,3.30611135,0.021750939
15,23.5,1.044428882,0,1.044428882,-1.329226057,-2.8150570085,0.0947456885,-57.034923335,18.14730833,2.235772315,0.649167464,3.2618055,0.02115504
16,0.5,0.6009825465,0,0.6009825465,-1.6876603345,-4.329422734,0.102919565,-62.27059,16.886425,2.565404175,0.763566215,3.1376392,0.0214529805
16,1.5,0.6329913915,0,0.6329913915,-2.335110488,-2.7300235485,0.107221856,-60.792331665,16.522833335,2.519465765,0.674365341,3.1483335,0.020559103425
16,2.5,0.521353188,0,0.521353188,-2.1875390005,-1.5355695945,0.1071439735,-59.721601665,16.509843335,2.33122682,0.770598953,3.1765282,0.0196652295
16,3.5,0.624349712,0,0.624349712,-0.160035264,-1.7282272635,0.1201475475,-57.415341665,16.49212,2.748412445,0.785019101,3.1761108,0.017579527425
16,4.5,0.591218729,0,0.591218729,0.846002968,-2.806575622,0.126356308,-57.470745,16.21149833,2.382205775,0.7472890045,3.1718063,0.02294278335
16,5.5,0.4403933815,0,0.4403933815,1.094948444,-6.4155135645,0.1274183775,-43.989168335,16.16015,2.090261195,0.7903330205,3.14013965,8.47959450075
16,6.5,-0.459267673,0,-0.459267673,7.8019221755,28.646327575,0.145746769,21.51977167,16.898961665,3.38699817,0.50922917,3.0358338,86.3605125
16,7.5,-1.2922879895,0,-1.2922879895,21.1816743,88.453844955,0.2031023015,214.87445,19.241855,7.29681449,0.810648956,2.97986065,337.547084985
16,8.5,-1.3577496935,0,-1.3577496935,26.13728579,175.17064125,0.2737530935,378.0173,22.306021665,12.57812318,1.6314906455,2.96361085,544.961925
16,9.5,-1.8603655045,0,-1.8603655045,24.85501095,257.9361479,0.3772506825,489.36568335,25.22591667,19.01733549,2.5882271245,2.962778,687.833250075
16,10.5,-1.873177801,0,-1.873177801,33.01540442,330.48212715,0.4676893395,572.23168335,26.939506665,22.449591695,3.300371192,2.9418055,785.8512
16,11.5,-2.238130357,0,-2.238130357,30.14207012,396.5276243,0.53521471,602.9380667,28.64222667,24.8207637,3.81754195,2.9394447,827.99670015
16,12.5,-2.676439784,0,-2.676439784,21.18486776,414.6671758,0.5660109845,574.34886665,27.991145,25.681771635,3.9778376115,2.94055635,834.270599925
16,13.5,-2.3946137125,0,-2.3946137125,13.94421442,402.48455845,0.5330970795,505.0180667,28.355006665,25.165010635,3.7993799825,2.92319465,783.063675
16,14.5,-2.380727483,0,-2.380727483,21.22793118,386.85125735,0.5394311135,397.85711665,28.19234167,24.180790435,3.8181363625,2.95930665,670.183499925
16,15.5,-1.74667733,0,-1.74667733,9.866786847,322.69326075,0.508895111,261.71581665,27.482348335,22.579176015,3.665858778,3.07500015,512.794275075
16,16.5,-1.363105435,0,-1.363105435,7.0650611495,227.3408086,0.467854161,103.761171665,26.0035,19.275228055,3.627566858,3.178889,317.5585499925
16,17.5,-0.579675602,0,-0.579675602,-1.982446149,97.11880896,0.407488317,-31.35284645,23.887811665,14.62973309,3.2527221255,3.17805565,120.1445624925
16,18.5,0.475880364,0,0.475880364,-8.414696113,4.3252144495,0.2784170535,-89.84275833,20.985133335,7.67476874,2.338622655,3.17444485,4.576937256675
16,19.5,0.77018718,0,0.77018718,-9.97296606,-6.3833751275,0.168968964,-86.37294667,18.785721665,4.583344675,1.5561958135,3.20680585,0.0268162245
16,20.5,0.7778026345,0,0.7778026345,-5.4187664005,-6.22387335,0.123137335,-79.99913167,17.96755333,3.736548015,1.068612612,3.1976388,0.02145297015
16,21.5,0.703789149,0,0.703789149,-4.4758137755,-5.0399441735,0.096335313,-75.698215,17.635215,3.061024465,0.7685282405,3.16527785,0.0229427775
16,22.5,0.5564831715,0,0.5564831715,-2.6769600155,-3.8640085675,0.079452255,-69.906306665,17.342265,3.03148104,0.7861296565,3.16291685,0.021155031
16,23.5,0.8334044075,0,0.8334044075,-4.223995141,-4.0933082325,0.10358703,-65.537736665,17.15601,2.819412755,0.6895418825,3.11180585,0.019665250425
17,0.5,0.43095958,0,0.43095958,-1.834689113,-5.218174263,0.1047357915,-56.181498335,19.678418335,4.74220095,0.8810474475,2.96263885,0.020261162925
17,1.5,0.612046804,0,0.612046804,0.332152365,-4.61986785,0.102112787,-55.497183335,19.46412333,5.15367185,0.8939589665,2.9734725,0.020261149425
17,2.5,0.564037816,0,0.564037816,-0.696996646,-9.111039098,0.115350129,-53.940728335,18.764351665,5.33876102,0.912621336,2.89333365,0.018473419575
17,3.5,0.628264499,0,0.628264499,0.556096541,-5.3889551835,0.111854144,-53.098578335,19.63274,5.32596061,0.735560021,2.955,0.018473418
17,4.5,0.4372871625,0,0.4372871625,1.021817103,-6.545185615,0.103222405,-52.067656665,19.48841,5.26904833,0.790816144,2.9356942,0.0208570815
17,5.5,0.457751584,0,0.457751584,0.3507286145,-5.388303116,0.116562364,-45.039746665,19.121501665,4.20128238,0.745018138,2.91208385,5.604891458175
17,6.5,-0.1713243865,0,-0.1713243865,5.398347453,5.0951143715,0.1268424235,11.858473315,19.97705333,4.68366234,0.711809378,2.941945,59.121482985
17,7.5,-0.885365564,0,-0.885365564,25.86568682,77.762366825,0.1935052155,197.52661665,22.734615,12.29379532,1.0343177095,2.8809727,318.3347175075
17,8.5,-1.0870576135,0,-1.0870576135,26.01759466,151.05918915,0.2895541735,352.21365,25.172715,18.2310023,1.7569060885,2.85138915,511.80600015
17,9.5,-1.405976819,0,-1.405976819,24.43758239,243.46689885,0.3871537625,466.71231665,27.7074,21.56454483,2.6453376,2.8104168,664.671825
17,10.5,-1.712923888,0,-1.712923888,23.65263326,305.81414675,0.4848307975,542.99841665,28.50024,23.43767753,3.5953152595,2.82833415,773.835525
17,11.5,-2.336001208,0,-2.336001208,24.11627137,364.58162055,0.5352742355,573.71525,29.316035,24.84889668,3.8053787355,2.85166715,819.17220015
17,12.5,-2.256198817,0,-2.256198817,23.392592105,386.8545306,0.537851996,548.7582167,29.470921665,25.705466865,3.8133411975,2.8783337,813.438375075
17,13.5,-2.334086566,0,-2.334086566,18.76463694,387.1011512,0.5608335235,475.1208833,29.546685,24.78871129,4.020915168,2.81555615,740.526000075
17,14.5,-2.100082259,0,-2.100082259,11.38138736,351.56406515,0.5368007285,355.53831665,28.866041665,24.264892515,3.8476981085,2.8430562,617.120775
17,15.5,-1.60374612,0,-1.60374612,5.338400769,269.3559812,0.4865631675,206.4428715,28.057305,20.970987245,3.83768932,2.8872232,434.642745015
17,16.5,-1.1367068445,0,-1.1367068445,-2.198779218,175.23277615,0.4381459635,50.491775,26.719513335,18.351712125,3.4272449735,3.0229173,229.9984125075
17,17.5,-0.09356627,0,-0.09356627,-7.735451432,47.658746465,0.356098487,-48.197746665,23.774285,11.84770569,2.9180971095,2.9893057,49.4878777425
17,18.5,0.673324033,0,0.673324033,-8.0369540105,-2.6915282945,0.237744853,-81.156465,21.144305,6.779396465,2.098406718,2.954445,0.25594602165
17,19.5,0.952586712,0,0.952586712,-5.762278722,-4.7916098855,0.156019291,-72.73281,19.595223335,4.550696655,1.318798396,2.9631952,0.0265182615
17,20.5,0.8438434335,0,0.8438434335,-4.3525555065,-5.8728117515,0.129845527,-69.215985,19.381663335,3.741797475,1.0057402105,2.97138965,0.0235387035
17,21.5,0.927677726,0,0.927677726,-1.9266049585,-4.357493822,0.1095389635,-62.697551665,19.278063335,3.51137045,0.912130421,2.97000065,0.022048881075
17,22.5,0.717160172,0,0.717160172,-2.187166804,-4.477166473,0.1036747775,-60.20156333,19.446393335,3.262515925,0.672109419,2.95069515,0.021452985
17,23.5,0.413574417,0,0.413574417,-1.289992909,-3.905193425,0.1031136365,-57.56572667,19.34693833,3.85704554,0.6972115835,2.95583435,0.0217509525
18,0.5,0.578071421,0,0.578071421,0.113154764,-8.1556327935,0.1304535105,-27.67723167,18.533883335,5.54688832,0.9260736485,2.8687495,0.019665234
18,1.5,0.9377238595,0,0.9377238595,-2.640325757,-8.331080975,0.1206400115,-22.79439167,18.57032,5.543017825,1.1346648965,2.875,0.020559105
18,2.5,0.4902427035,0,0.4902427035,-0.845168375,-8.632407893,0.1114325175,-20.671151665,18.709128335,5.679481845,1.010995916,2.875,0.0217509435
18,3.5,0.6319894815,0,0.6319894815,0.622848832,-7.5034847955,0.1138584805,-26.091273335,18.46784,5.79279694,1.0805633235,2.875,0.02115503235
18,4.5,0.6442073655,0,0.6442073655,-0.659807464,-4.6564629735,0.117970189,-20.33055,18.951281665,5.450384335,1.103242489,2.875,0.019963204425
18,5.5,0.673052144,0,0.673052144,1.4326068325,-7.590319063,0.117687883,-19.71483333,18.413115,5.148494955,1.05938812,2.875,8.87915205
18,6.5,0.0862346535,0,0.0862346535,5.911357046,-2.0973532755,0.1304275505,5.655185035,18.06042167,5.79134536,1.025545576,2.875,62.4901957425
18,7.5,-0.836791597,0,-0.836791597,19.40664893,57.3733429,0.191867522,175.34263335,21.330355,8.28370285,0.8965311895,2.875,294.1753650075
18,8.5,-1.338852638,0,-1.338852638,27.81268211,121.8622839,0.2388209985,349.90615,22.630158335,10.57421572,1.11832773,2.875,494.840377575
18,9.5,-1.708989202,0,-1.708989202,31.883532755,215.42569585,0.3265440205,477.8315167,22.6324,13.06792309,1.941709417,2.85652785,653.702325075
18,10.5,-1.987393995,0,-1.987393995,33.917368325,278.7511282,0.409298027,543.2507333,22.6324,14.30327099,2.501536222,2.8708333,760.38330015
18,11.5,-1.818804116,0,-1.818804116,31.185168575,333.8609996,0.4854580325,544.463,23.15236,14.93748736,3.451173089,2.6933343,770.2875
18,12.5,-2.007331959,0,-2.007331959,33.53783636,347.27226045,0.518326433,530.75623335,23.508953335,15.58370358,3.632717391,2.7586115,770.2875
18,13.5,-1.6799488915,0,-1.6799488915,21.68009386,339.9396589,0.508307583,464.43528335,23.309428335,14.962629385,3.461471987,2.77875065,730.446975
18,14.5,-1.9782724675,0,-1.9782724675,21.88758704,304.4618155,0.474124498,357.79473335,22.838185,14.800218325,3.251755556,2.8441665,613.499550075
18,15.5,-1.549278884,0,-1.549278884,9.541890411,220.7073998,0.434825064,209.70618335,22.6324,14.218509035,3.0924663745,2.81430585,447.442147575
18,16.5,-0.971725508,0,-0.971725508,3.947663561,128.8436737,0.397015516,61.36176,22.6324,12.69620035,2.8523266225,2.866389,241.7436524925
18,17.5,-0.117329412,0,-0.117329412,-3.9157990625,29.79616608,0.2829831495,-46.628113415,22.27126,9.095221605,2.216227964,2.875,59.7063660075
18,18.5,0.881722293,0,0.881722293,-4.0399903345,-8.7438950485,0.1647011965,-84.448303335,20.762795,7.16998828,1.518273355,2.875,0.128420003925
18,19.5,1.074941899,0,1.074941899,-3.5355385365,-9.6737940525,0.1296506425,-74.23314,20.418128335,6.35365594,1.2960580235,2.86263865,0.024730526925
18,20.5,0.637648148,0,0.637648148,-2.783476641,-11.18133085,0.126366229,-43.18541,20.51093667,5.60661211,1.135467398,2.875,0.02562441615
18,21.5,0.7134500225,0,0.7134500225,-3.40573934,-8.6221288265,0.1495709385,-31.33797833,20.277413335,5.83773554,1.2292937085,2.875,0.022644816075
18,22.5,0.719741804,0,0.719741804,-4.023508154,-9.5095678655,0.1194711115,-46.376258335,20.098231665,6.027551165,1.134525679,2.875,0.0205591095
18,23.5,0.801789127,0,0.801789127,-1.3132787005,-9.207500198,0.125947608,-34.807313335,20.388461665,5.95973868,1.2115247945,2.875,0.022048902
19,0.5,0.899014983,0,0.899014983,0.189306794,-15.288008815,0.1102865055,-71.419098335,17.54943,11.325833275,1.064621473,3.086389,0.0184734135
19,1.5,0.999891652,0,0.999891652,-0.1952659545,-15.78442502,0.110610098,-68.064178335,17.073335,11.082797205,1.112381375,3.113195,0.017579530575
19,2.5,0.6733616885,0,0.6733616885,3.7063442365,-13.48379348,0.1224201005,-67.53744333,17.330673335,12.264425525,1.12155701,3.08694415,0.017281573425
19,3.5,0.701971099,0,0.701971099,2.6814879985,-12.26659764,0.111551668,-69.13923167,16.733355,11.40573418,1.049182177,3.0762495,0.018771363
19,4.5,0.6450340915,0,0.6450340915,1.5268245635,-9.3513946205,0.1006164395,-68.34169167,17.00116167,10.148792155,1.005071775,3.03736085,0.01757952315
19,5.5,0.764638327,0,0.764638327,2.545046281,-9.5336745765,0.094201294,-64.118003335,17.081665,11.1837208,0.973618984,3.1286107,1.31310203265
19,6.5,0.0526893045,0,0.0526893045,5.592921253,-6.1780697965,0.11685054,-41.34207,17.264958335,11.48272621,0.6991766905,3.07638865,36.7778804985
19,7.5,-1.0243526425,0,-1.0243526425,20.487010235,41.48099098,0.1318559215,113.95061655,18.619453335,15.58826456,0.726661132,3.09416715,226.068359985
19,8.5,-1.490653036,0,-1.490653036,29.829443515,124.3331877,0.213268178,321.29038335,22.771585,25.20100358,1.119605023,3.05472235,448.4329724925
19,9.5,-1.489842262,0,-1.489842262,33.312253455,194.9738257,0.319511638,435.9469167,24.870436665,27.056050455,1.787209967,3.0051387,599.62275
19,10.5,-1.741680752,0,-1.741680752,26.157763565,254.1414955,0.42336697,494.8301333,28.07033667,27.55818374,2.763884113,2.9738897,683.91779985
19,11.5,-2.033623874,0,-2.033623874,24.16524332,316.59193155,0.5197623405,521.0397,28.038115,26.31329867,3.6157444145,3.012222,728.68935015
19,12.5,-1.896864431,0,-1.896864431,21.14492622,324.28474525,0.5414472385,488.3732333,27.96339333,26.15108462,3.8825970815,2.97125,705.30854985
19,13.5,-1.7673196775,0,-1.7673196775,23.64539117,312.15584535,0.5227678655,408.8272,27.244445,26.401617285,3.7459888635,2.97944465,635.695949925
19,14.5,-1.446369112,0,-1.446369112,19.08131414,268.36374515,0.479997338,280.61218335,26.73047333,27.05823418,3.522552315,2.9633335,505.31085
19,15.5,-0.9821110355,0,-0.9821110355,7.1976461615,186.3279625,0.410658953,122.4565797,25.759255,22.64138339,3.192264328,2.98416685,328.4990399925
19,16.5,-0.3165381645,0,-0.3165381645,0.919628805,89.68572879,0.351526676,1.45067835,23.904038335,17.27095053,2.7255659485,3.110556,123.328792485
19,17.5,0.547737717,0,0.547737717,-5.457284761,-1.063370973,0.233237109,-87.675396665,20.894326665,15.987837355,1.9543094505,3.1494438,6.418913717925
19,18.5,0.965328605,0,0.965328605,-5.100543427,-12.773811155,0.135523074,-87.183673335,18.24753,12.824796705,1.3761751595,3.1883337,0.0247305195
19,19.5,1.0690986855,0,1.0690986855,-3.447508885,-15.409743685,0.118809534,-80.50692667,18.075656665,11.613645585,1.263691219,3.1926392,0.022346863425
19,20.5,0.9975756465,0,0.9975756465,-0.6153099525,-12.56653498,0.1006169785,-75.878828335,17.694003335,9.29664821,1.158458625,3.1974995,0.02055910815
19,21.5,0.7898340425,0,0.7898340425,-4.83270774,-12.067353155,0.1007506595,-74.099055,18.120563335,12.077172085,1.2470434535,3.1850005,0.018473418
19,22.5,0.779670627,0,0.779670627,-2.949872348,-17.242523565,0.098416207,-73.379233335,18.24081667,11.88216707,1.27024496,3.19527765,0.0187713675
19,23.5,1.181746101,0,1.181746101,-3.0936100085,-18.947145545,0.0968027905,-71.636176665,17.356466665,10.37708906,1.311346065,3.16722285,0.019665235575
20,0.5,1.094065353,0,1.094065353,1.1639116535,-23.37732578,0.1172748195,-65.902555,16.291008335,15.594738515,1.3749842355,3.1556945,0.01757952315
20,1.5,0.563945263,0,0.563945263,0.300185231,-16.22624951,0.117528721,-65.962041665,16.685056665,15.518957205,1.1914873795,3.16444465,0.01847339415
20,2.5,0.689444573,0,0.689444573,1.241396801,-18.355720275,0.1080075575,-65.95556667,16.07357833,15.566479705,1.1307900675,3.15791685,0.016685667
20,3.5,0.368290451,0,0.368290451,0.519233492,-12.29838843,0.104280197,-63.231955,15.775738335,15.283881745,1.102501572,3.175139,0.017579529
20,4.5,0.87422669,0,0.87422669,1.473291104,-17.384382885,0.1086888415,-62.577136665,15.348213335,14.91786249,1.1948465995,3.1752782,0.016983628425
20,5.5,0.423290281,0,0.423290281,2.26134746,-16.852541865,0.1034780395,-62.111321665,15.377436665,14.764301885,1.0770113685,3.1765278,0.4484272365
20,6.5,0.175967257,0,0.175967257,3.8522915265,-14.520813915,0.1119737165,-44.788866665,15.633091665,13.65455677,0.970541488,3.1512495,28.52086124925
20,7.5,-0.373898769,0,-0.373898769,13.26181654,5.800171651,0.131504297,41.976496665,17.5002801,14.12271075,1.015617056,3.08652715,106.0326299925
20,8.5,-1.335822658,0,-1.335822658,29.123399145,94.84467024,0.191105204,282.3749667,21.31317667,24.36813166,1.036724799,2.979722,412.460114985
20,9.5,-1.544984365,0,-1.544984365,28.823182945,156.0085831,0.255961029,402.4197,24.03102,30.58414479,1.589465953,2.9277773,562.99874985
20,10.5,-1.435335504,0,-1.435335504,22.77908609,218.4629844,0.3383790625,467.54653335,26.127445,30.334451945,2.1783670795,2.93847185,660.481499925
20,11.5,-1.6819170475,0,-1.6819170475,22.43734062,266.1755651,0.444182504,477.99463335,26.78633,30.36589422,3.158216835,2.94888885,687.453149925
20,12.5,-1.657834018,0,-1.657834018,18.227251085,279.0113169,0.480148417,442.1463,26.41488167,30.38732478,3.558312165,2.9743055,674.6517
20,13.5,-1.462367912,0,-1.462367912,16.92701867,255.50957705,0.472011522,345.9682,26.14064333,28.57631006,3.5923549865,2.995972,586.8819675
20,14.5,-1.4111542615,0,-1.4111542615,9.183759967,214.20733845,0.451969375,226.0378,25.48272,26.996697825,3.4110063625,3.128611,451.37471265
20,15.5,-0.7847319585,0,-0.7847319585,3.6211089935,139.0163193,0.372620882,77.3645,24.919365,25.417379425,3.076368112,3.133056,258.765427485
20,16.5,-0.2190862625,0,-0.2190862625,0.860266757,39.755493275,0.28106292,-33.8159775,23.317681665,16.83252854,2.3615127365,3.13513915,71.9059664925
20,17.5,0.446022307,0,0.446022307,-4.3770725945,-14.57440479,0.1637440825,-85.62266167,20.655975,19.11067408,1.44053513,3.1895835,0.807467571
20,18.5,0.680052608,0,0.680052608,-4.42899563,-14.13495501,0.118909427,-80.113556665,19.91057,17.48545356,1.3937767945,3.22125035,0.0235386945
20,19.5,0.821163256,0,0.821163256,-2.307684444,-19.20829378,0.114364127,-75.043865,18.66406333,16.36680312,1.3403544415,3.22416665,0.022942773
20,20.5,0.818116732,0,0.818116732,-2.3712034695,-18.77301878,0.107554316,-73.372766665,18.213495,16.15205335,1.36375668,3.223056,0.020261166075
20,21.5,1.018618602,0,1.018618602,-1.442200755,-21.32244719,0.118100689,-69.465196665,17.739268335,16.16335997,1.3280281715,3.21097215,0.01787749515
20,22.5,0.9384184225,0,0.9384184225,-0.4645253025,-15.23354492,0.1076204175,-68.67102833,17.805622205,15.47116346,1.1425934395,3.2137503,0.01966524435
20,23.5,1.141395732,0,1.141395732,1.350881577,-18.49464311,0.1079175145,-67.14095333,17.983758335,15.53258265,1.1570969125,3.20527815,0.020261143575
21,0.5,0.396400623,0,0.396400623,-0.58186867,-9.205492526,0.091183379,-65.26092833,18.616228335,3.13537134,1.124387337,2.97,0.016685655075
21,1.5,0.441174084,0,0.441174084,0.164688247,-13.82409608,0.103270926,-66.371725,18.38567833,3.72976461,1.0584692565,2.90819485,0.016387713
21,2.5,0.561983493,0,0.561983493,-0.011335478,-15.79405239,0.1174825905,-66.16064833,18.165495,3.30646385,1.1470299,2.87250035,0.016983613575
21,3.5,0.4858935455,0,0.4858935455,0.467986685,-10.542203,0.116607077,-64.67999333,17.962175,2.52715199,1.0868665775,2.8208338,0.017579527425
21,4.5,0.320832596,0,0.320832596,0.180690237,-10.0170713845,0.110847546,-63.007685,17.704198335,3.08577103,0.9619861475,2.76833315,0.0178774785
21,5.5,0.3023233835,0,0.3023233835,0.993058195,-10.552736415,0.1060207545,-61.33753,17.83275167,2.98056487,0.944537224,2.7876393,0.05035495185
21,6.5,0.051649862,0,0.051649862,1.971876778,-7.515475194,0.1146640175,-46.00927,17.21991333,4.543751125,0.9543496095,2.780973,19.86457619925
21,7.5,-0.346887332,0,-0.346887332,5.992301048,-1.381866203,0.1021783755,-9.257891665,18.184215,5.678554675,0.871866009,2.77208315,81.681705
21,8.5,-1.09013739,0,-1.09013739,19.24296467,66.167075865,0.188895741,218.3836167,21.44628333,12.66664082,1.029271682,2.7833332,332.973750015
21,9.5,-1.494269677,0,-1.494269677,21.50446561,136.8466567,0.263207558,340.2842,24.75608667,15.771944635,1.462932908,2.75958365,495.010005075
21,10.5,-1.78491092,0,-1.78491092,20.7947084,182.8899374,0.333269999,412.70998335,26.77268,18.358586275,1.770169715,2.7365283,609.70762485
21,11.5,-1.894784836,0,-1.894784836,19.72679189,213.1790357,0.3779063715,425.50866665,26.6696,21.12836886,2.3333749725,2.718195,640.660124925
21,12.5,-1.6720102255,0,-1.6720102255,16.12679426,241.44739235,0.417032657,378.16458335,26.792811665,20.64564335,2.887080592,2.7204178,613.76025015
21,13.5,-1.272891528,0,-1.272891528,8.415171602,215.07056955,0.4025562985,290.99,26.805628335,15.962233575,2.85900857,2.73250015,521.387775
21,14.5,-1.049685605,0,-1.049685605,7.292207915,163.81930145,0.372007696,178.3897717,26.44665,14.717475805,2.915859376,2.74819485,371.12967
21,15.5,-0.712794082,0,-0.712794082,2.427747171,92.87727776,0.326490782,44.24365,25.39871,12.69348894,2.586505362,2.7347223,187.87761
21,16.5,0.018725142,0,0.018725142,-2.27076095,12.929824385,0.255052584,-55.093736665,23.33232,9.03219608,1.884513777,2.76902785,25.722145125
21,17.5,0.5950594025,0,0.5950594025,-3.971880006,-16.276149835,0.192366891,-81.25529,21.332821665,5.76851643,1.475274451,2.87541735,0.08044873785
21,18.5,0.453359541,0,0.453359541,-2.044866355,-11.44173519,0.1272373185,-77.86822667,20.15186333,5.046202165,1.333643864,2.98,0.02204890785
21,19.5,0.445192705,0,0.445192705,-0.690457927,-14.98342133,0.107720637,-77.136175,19.67412,4.447815905,1.391877398,3.022917,0.018473402925
21,20.5,0.6950176525,0,0.6950176525,-1.02639806,-15.992287405,0.1084623335,-75.374391665,19.25895,5.10208682,1.275299417,3.03277765,0.018175452075
21,21.5,0.52276321,0,0.52276321,0.356002192,-12.378368895,0.1203470615,-71.353616665,19.317203335,4.42396903,1.000854747,3.0411107,0.01668565935
21,22.5,0.50212145,0,0.50212145,-0.189164518,-12.314138975,0.11833258,-71.587485,19.429225,3.587188055,1.2249605405,3.02611135,0.017281584
21,23.5,0.4480859795,0,0.4480859795,0.2029963325,-10.490089005,0.1068301825,-65.924625,19.018621665,3.327256,0.9679115765,2.98013865,0.018771356925
22,0.5,0.3464270415,0,0.3464270415,0.7671380985,-19.93397152,0.118741793,-74.57853833,15.88285,12.799427655,1.10550062,2.72,0.017573292
22,1.5,0.429815876,0,0.429815876,0.886163765,-17.237383775,0.106634492,-73.48909333,15.577506685,12.53358834,1.353847481,2.71250015,0.016397830575
22,2.5,0.490412011,0,0.490412011,1.9769745645,-21.665225455,0.11274496,-74.17293167,15.28251,12.090321045,1.248843814,2.71486115,0.015188955075
22,3.5,0.517081586,0,0.517081586,2.348345346,-19.73782397,0.1133866355,-72.519096665,14.85378165,11.665067995,1.196369509,2.73,0.016099872075
22,4.5,0.6080172675,0,0.6080172675,1.8952617745,-22.69493695,0.1223334145,-69.848018335,14.630105015,11.569581955,1.237123241,2.745,0.016397826075
22,5.5,0.3484627065,0,0.3484627065,2.0158371975,-18.070055245,0.121912765,-69.059598335,14.414935015,11.73327212,1.254315009,2.72,0.022347414
22,6.5,0.165066584,0,0.165066584,2.1686885595,-17.605388,0.113187059,-61.96333,14.61237835,11.99010729,1.1609962635,2.74,8.26178437575
22,7.5,0.1215774645,0,0.1215774645,4.979502808,-14.917738635,0.1206420775,-45.536508335,14.652075,12.56947745,1.0689595145,2.73194415,44.2134397485
22,8.5,-0.620472625,0,-0.620472625,21.86605905,31.588392135,0.1364502205,151.2234883,17.626275,18.08620283,0.7347789305,2.71,288.2388750075
22,9.5,-1.135882509,0,-1.135882509,25.73086904,107.87634435,0.195229286,314.3272,20.710989985,28.41923768,1.0762979675,2.6980555,455.533004925
22,10.5,-0.9959974075,0,-0.9959974075,29.39424722,153.8938231,0.2422034705,389.3439667,23.12277,31.21277875,1.5068967555,2.65,566.88825015
22,11.5,-0.857321346,0,-0.857321346,25.248998195,173.8471703,0.315857321,395.96626665,23.997461665,33.21073749,2.036291189,2.6561108,604.876124925
22,12.5,-0.963908428,0,-0.963908428,22.12797121,196.9997866,0.399025239,358.72225,24.465588335,31.95242657,3.149650307,2.65333365,575.830575
22,13.5,-0.864952673,0,-0.864952673,16.01725157,176.7464916,0.365847654,277.0073667,23.5026,28.87530513,3.223919085,2.65291665,478.5078825
22,14.5,-0.6479129935,0,-0.6479129935,13.303816205,133.21444485,0.365700196,146.666865,22.781335,27.06184312,3.01594692,2.67875035,336.3951674925
22,15.5,-0.247731956,0,-0.247731956,7.8219202155,60.581205495,0.294768355,10.977679635,22.064769985,23.35005942,2.580601022,2.70888915,155.4469125075
22,16.5,0.177710638,0,0.177710638,0.615791571,-5.0968431275,0.1829285375,-64.219456665,20.10371,17.389804155,1.659244754,2.72138885,19.00556415
22,17.5,0.906963367,0,0.906963367,0.379752438,-20.18324447,0.115539456,-85.82630333,17.41726333,13.78288057,1.558086331,2.73,0.039926401425
22,18.5,0.800771859,0,0.800771859,0.51646386,-23.72149568,0.1073269875,-80.572411665,17.054433315,12.483660775,1.6121891395,2.76,0.019069317
22,19.5,0.6330169725,0,0.6330169725,0.0683390355,-27.045974455,0.1244906175,-77.840406665,16.558528315,12.406254325,1.6403628595,2.76708435,0.016089739425
22,20.5,0.575660489,0,0.575660489,-0.509451196,-26.507903405,0.11620618,-77.062051665,16.533705,12.99230005,1.5964457095,2.75652785,0.018175462425
22,21.5,0.6997556315,0,0.6997556315,2.160169377,-24.7341341,0.11340907,-74.29382167,15.750280015,13.25437661,1.4505372115,2.734167,0.01611
22,22.5,0.217235099,0,0.217235099,0.518499601,-15.58427164,0.109022162,-74.03142333,16.525716685,12.77344121,1.1810227085,2.73,0.016690330575
22,23.5,0.36164751,0,0.36164751,1.325258104,-20.11322472,0.1233458595,-74.53681,15.687375015,12.707503455,1.252570771,2.7340288,0.015791776425
23,0.5,0.542011728,0,0.542011728,1.079762115,-18.682313445,0.11946405,-67.914988335,12.015295,7.8670483,1.1824945895,2.51569465,0.01728
23,1.5,0.4992989175,0,0.4992989175,2.5022397775,-19.224674715,0.1190796895,-65.65958,11.66328,7.719956515,1.0501310825,2.50805585,0.016685650575
23,2.5,0.3603781445,0,0.3603781445,2.264807215,-15.52212823,0.115446599,-64.79848167,11.371341665,7.81107375,1.069121359,2.52458385,0.014013497925
23,3.5,0.218261495,0,0.218261495,2.067150917,-8.808873924,0.1227985765,-62.768063335,11.52428333,8.17552131,1.0250634005,2.50041665,0.0160998705
23,4.5,0.352651622,0,0.352651622,2.834267988,-20.55745193,0.126104143,-63.158318335,11.510553335,8.65859968,1.082449552,2.50694415,0.0163876995
23,5.5,0.565491618,0,0.565491618,3.148755618,-15.01006521,0.1215497525,-63.050148335,11.462165,8.12947285,1.180581993,2.4900003,0.015784863075
23,6.5,0.296715123,0,0.296715123,2.836123875,-16.72165712,0.120124602,-58.027701665,11.889753335,7.17264607,1.0593638795,2.50444515,3.98787266475
23,7.5,-0.025047473,0,-0.025047473,6.2934395265,-9.3064986905,0.114665861,-33.978595,12.25905835,8.99476183,0.997699798,2.52291665,42.17718375
23,8.5,-0.6997611705,0,-0.6997611705,16.184373765,6.2803422655,0.1643274855,49.381225665,13.631705,11.6436734,0.9682395725,2.51708315,137.569402485
23,9.5,-1.423662051,0,-1.423662051,28.929676595,78.234847905,0.218794163,260.04588,16.95528667,15.93703083,1.3301942365,2.50708365,396.8735699925
23,10.5,-1.508906089,0,-1.508906089,25.50836075,124.5784291,0.273046053,334.3641833,17.916055,16.82618401,1.673672977,2.4995835,484.66695015
23,11.5,-1.393982269,0,-1.393982269,34.291268295,151.53995135,0.316828618,351.7032333,19.02217,18.10652904,2.384278209,2.53611135,510.34829985
23,12.5,-1.5000891575,0,-1.5000891575,24.067562075,146.4572338,0.3587959605,317.33141665,19.74440667,18.345758635,2.7132365885,2.5158335,492.18438015
23,13.5,-1.090554995,0,-1.090554995,18.62813385,138.8693758,0.362614789,241.8352,20.059025,18.19017934,3.124002569,2.4894445,415.76886
23,14.5,-0.889810805,0,-0.889810805,16.68298492,94.15779308,0.3396028285,125.05716335,19.24655335,16.13054589,2.810558101,2.462223,283.445595
23,15.5,-0.562547377,0,-0.562547377,10.69292439,33.5580346,0.301160124,10.417140415,18.33081,15.561298315,2.606363635,2.48583315,134.077665015
23,16.5,0.201543667,0,0.201543667,1.844639094,-7.0693394145,0.2154413365,-61.66782,16.315276665,8.562754835,1.6543491755,2.512084,7.19896815
23,17.5,0.701066581,0,0.701066581,1.081129431,-17.95736044,0.1332815545,-76.363581665,14.647423335,7.086842155,1.5984262985,2.5308335,0.033967243575
23,18.5,0.621467336,0,0.621467336,0.629171497,-22.51049019,0.131310379,-72.158831665,13.810633315,6.689864055,1.669256255,2.56,0.017573289075
23,19.5,0.615282182,0,0.615282182,1.981327296,-18.96204571,0.1196507455,-69.39444,13.426981685,6.80879894,1.502192806,2.5672232,0.01668565215
23,20.5,0.451179438,0,0.451179438,3.132415965,-17.488273575,0.115977064,-67.983101665,13.09781835,7.203645825,1.2674328555,2.56847265,0.016690321575
23,21.5,0.39872444,0,0.39872444,1.506915703,-14.76293889,0.121794436,-69.96699,12.762683315,7.253047265,1.20072028,2.5351395,0.01698282
23,22.5,0.532353723,0,0.532353723,2.0237219815,-20.391397095,0.1226552285,-68.586593335,12.45647667,6.622138705,1.2077191345,2.52708365,0.016089739425
23,23.5,0.495531405,0,0.495531405,1.899466735,-12.045911845,0.122214457,-66.051273335,12.341713335,7.440698885,1.1144747205,2.54736085,0.015486905925
24,0.5,0.706906331,0,0.706906331,2.336015524,-21.127315575,0.1225598185,-66.230923335,11.49044383,6.52671895,1.2978530385,2.75388885,0.01489790565
24,1.5,0.639546785,0,0.639546785,1.5489386815,-17.37546921,0.113229747,-66.859841665,10.93385335,5.62273719,1.2842519135,2.74861135,0.017865
24,2.5,0.604926821,0,0.604926821,1.6511402005,-22.832961165,0.120574013,-65.327133335,10.85251335,5.87797703,1.269076505,2.74513835,0.01611
24,3.5,0.631744006,0,0.631744006,2.310833109,-20.86058218,0.1189354895,-64.147016665,10.928828335,5.40913044,1.1566936365,2.715,0.015791775075
24,4.5,0.6535218355,0,0.6535218355,2.7154936975,-20.81360566,0.1275529765,-62.986333335,10.91821667,5.40224345,1.14816598,2.69833315,0.014897908575
24,5.5,0.628028063,0,0.628028063,1.654109997,-21.64059268,0.1342701165,-62.913176665,10.77262965,5.62762538,1.186348715,2.715,0.0148979115
24,6.5,0.521290226,0,0.521290226,2.513876319,-21.563435455,0.122804097,-60.61629,10.39170117,6.148857445,1.105281551,2.695,0.4108845015
24,7.5,0.0549268515,0,0.0549268515,3.77281669,-14.24940399,0.122056183,-42.047255,11.057203335,6.070933595,0.973244162,2.685,33.52954124925
24,8.5,-0.611480909,0,-0.611480909,9.717815194,-3.118669822,0.128467194,15.65662433,11.6870333,7.01618663,1.1780000475,2.712778,94.058265015
24,9.5,-1.5416137295,0,-1.5416137295,23.770577305,67.152419775,0.1682642385,243.1259167,13.86669,11.381532845,0.877179581,2.7,365.747625
24,10.5,-1.784847635,0,-1.784847635,32.99419984,109.9563294,0.212790396,333.6640333,15.1008633,15.52882412,1.376934237,2.6888895,468.653924925
24,11.5,-1.537841874,0,-1.537841874,28.95973549,142.9497115,0.281642,359.4597833,16.249823315,17.44711384,1.730441703,2.67569465,506.36820015
24,12.5,-1.548582028,0,-1.548582028,26.302675605,150.661798,0.3294549475,330.96268335,16.952695,17.53208069,2.3773665895,2.6802785,498.28350735
24,13.5,-1.432186721,0,-1.432186721,26.97870328,150.9634548,0.372907227,259.56715,17.278730015,15.579241875,2.856484992,2.6580555,438.535515015
24,14.5,-0.880848964,0,-0.880848964,27.44880727,101.2705025,0.351332302,143.67245,17.17625,12.366401735,2.901323269,2.69458385,306.96705
24,15.5,-0.516881167,0,-0.516881167,14.032637185,41.858112785,0.310002671,20.91197073,15.968276685,10.52526319,2.7094814975,2.68,143.527402485
24,16.5,0.169696666,0,0.169696666,4.611570139,-6.8661358055,0.237324588,-53.49099,13.93982165,8.96789776,1.782090028,2.7301395,13.13727757425
24,17.5,0.6278030635,0,0.6278030635,1.797693463,-22.912330105,0.145329054,-77.425926665,12.651695,7.343090725,1.660065939,2.7244445,0.035754975
24,18.5,0.84824576,0,0.84824576,1.526621621,-25.3217918,0.133189536,-74.7913,12.500096665,6.72501113,1.64884507,2.78388915,0.0163978245
24,19.5,0.767607014,0,0.767607014,1.973772625,-26.67621042,0.122273945,-72.54021,12.26071665,6.05758773,1.7688067295,2.76430565,0.01668565215
24,20.5,0.7340664225,0,0.7340664225,0.983350616,-21.85702707,0.132770491,-71.40854,12.208856665,6.296253245,1.786440627,2.7705555,0.01668566835
24,21.5,0.765483433,0,0.765483433,1.752284463,-25.080972985,0.1368156815,-69.942041665,12.077911665,5.83149968,1.6308448265,2.747361,0.015791780925
24,22.5,0.623212199,0,0.623212199,2.08953369,-24.225328,0.1286891035,-67.923865,12.06918165,5.635846255,1.496135246,2.70680535,0.01608974415
24,23.5,0.640777748,0,0.640777748,2.339439417,-19.478994145,0.1228034525,-66.44368,11.61076835,5.95402736,1.2401960825,2.734722,0.0164025
